5.014355630 3392.0
5.031066899 3425.0
5.047778168 3338.0
5.064489437 3221.0
5.081200706 3315.0
5.097911975 3367.0
5.114623244 3316.0
5.131334513 3410.0
5.148045782 3348.0
5.164757051 3395.0
5.181468320 3293.0
5.198179589 3357.0
5.214890858 3285.0
5.231602127 3254.0
5.248313396 3324.0
5.265024665 3264.0
5.281735934 3195.0
5.298447203 3252.0
5.315158472 3181.0
5.331869741 3325.0
5.348581010 3262.0
5.365292279 3245.0
5.382003548 3242.0
5.398714816 3218.0
5.415426085 3296.0
5.432137354 3230.0
5.448848623 3214.0
5.465559892 3268.0
5.482271161 3299.0
5.498982430 3257.0
5.515693699 3361.0
5.532404968 3253.0
5.549116237 3233.0
5.565827506 3304.0
5.582538775 3225.0
5.599250044 3254.0
5.615961313 3192.0
5.632672582 3233.0
5.649383851 3350.0
5.666095120 3201.0
5.682806389 3296.0
5.699517658 3116.0
5.716228927 3221.0
5.732940196 3169.0
5.749651465 3223.0
5.766362734 3199.0
5.783074003 3103.0
5.799785272 3190.0
5.816496541 3205.0
5.833207810 3118.0
5.849919079 3201.0
5.866630348 3183.0
5.883341617 3105.0
5.900052886 3095.0
5.916764155 3177.0
5.933475424 3112.0
5.950186693 3247.0
5.966897962 3112.0
5.983609231 3165.0
6.000320500 3112.0
6.017031769 3202.0
6.033743038 3204.0
6.050454307 3155.0
6.067165576 3132.0
6.083876845 3071.0
6.100588114 3235.0
6.117299383 2981.0
6.134010651 3224.0
6.150721920 3089.0
6.167433189 3013.0
6.184144458 3022.0
6.200855727 3167.0
6.217566996 3124.0
6.234278265 3114.0
6.250989534 3113.0
6.267700803 3158.0
6.284412072 3097.0
6.301123341 2995.0
6.317834610 3028.0
6.334545879 3011.0
6.351257148 2970.0
6.367968417 2982.0
6.384679686 3038.0
6.401390955 3026.0
6.418102224 3173.0
6.434813493 2894.0
6.451524762 3038.0
6.468236031 2880.0
6.484947300 3000.0
6.501658569 3088.0
6.518369838 3098.0
6.535081107 3005.0
6.551792376 2955.0
6.568503645 3069.0
6.585214914 3091.0
6.601926183 3049.0
6.618637452 2976.0
6.635348721 2901.0
6.652059990 2931.0
6.668771259 2990.0
6.685482528 3044.0
6.702193797 3096.0
6.718905066 2973.0
6.735616335 2913.0
6.752327604 2910.0
6.769038873 3001.0
6.785750142 2919.0
6.802461411 2983.0
6.819172680 2901.0
6.835883949 2929.0
6.852595218 2874.0
6.869306486 2969.0
6.886017755 2806.0
6.902729024 2917.0
6.919440293 2949.0
6.936151562 2900.0
6.952862831 2836.0
6.969574100 2870.0
6.986285369 2933.0
7.002996638 2773.0
7.019707907 2870.0
7.036419176 2864.0
7.053130445 2795.0
7.069841714 2946.0
7.086552983 2733.0
7.103264252 2834.0
7.119975521 2735.0
7.136686790 2817.0
7.153398059 2850.0
7.170109328 2926.0
7.186820597 2841.0
7.203531866 2873.0
7.220243135 2860.0
7.236954404 2790.0
7.253665673 2819.0
7.270376942 2917.0
7.287088211 2821.0
7.303799480 2884.0
7.320510749 2833.0
7.337222018 2851.0
7.353933287 2902.0
7.370644556 2816.0
7.387355825 2886.0
7.404067094 2993.0
7.420778363 2933.0
7.437489632 2967.0
7.454200901 3040.0
7.470912170 3142.0
7.487623439 3116.0
7.504334708 3294.0
7.521045977 3504.0
7.537757246 3523.0
7.554468515 3529.0
7.571179784 3317.0
7.587891053 3071.0
7.604602321 2798.0
7.621313590 2853.0
7.638024859 2775.0
7.654736128 2715.0
7.671447397 2727.0
7.688158666 2774.0
7.704869935 2654.0
7.721581204 2777.0
7.738292473 2734.0
7.755003742 2811.0
7.771715011 2692.0
7.788426280 2585.0
7.805137549 2653.0
7.821848818 2720.0
7.838560087 2748.0
7.855271356 2734.0
7.871982625 2716.0
7.888693894 2616.0
7.905405163 2756.0
7.922116432 2611.0
7.938827701 2681.0
7.955538970 2644.0
7.972250239 2711.0
7.988961508 2699.0
8.005672777 2632.0
8.022384046 2597.0
8.039095315 2611.0
8.055806584 2562.0
8.072517853 2645.0
8.089229122 2593.0
8.105940391 2536.0
8.122651660 2688.0
8.139362929 2665.0
8.156074198 2578.0
8.172785467 2611.0
8.189496736 2615.0
8.206208005 2520.0
8.222919274 2571.0
8.239630543 2611.0
8.256341812 2603.0
8.273053081 2661.0
8.289764350 2677.0
8.306475619 2580.0
8.323186888 2568.0
8.339898156 2561.0
8.356609425 2521.0
8.373320694 2673.0
8.390031963 2595.0
8.406743232 2562.0
8.423454501 2656.0
8.440165770 2568.0
8.456877039 2585.0
8.473588308 2455.0
8.490299577 2591.0
8.507010846 2554.0
8.523722115 2572.0
8.540433384 2522.0
8.557144653 2413.0
8.573855922 2491.0
8.590567191 2496.0
8.607278460 2469.0
8.623989729 2452.0
8.640700998 2545.0
8.657412267 2424.0
8.674123536 2476.0
8.690834805 2518.0
8.707546074 2513.0
8.724257343 2496.0
8.740968612 2493.0
8.757679881 2429.0
8.774391150 2428.0
8.791102419 2459.0
8.807813688 2414.0
8.824524957 2493.0
8.841236226 2482.0
8.857947495 2355.0
8.874658764 2431.0
8.891370033 2499.0
8.908081302 2434.0
8.924792571 2493.0
8.941503840 2430.0
8.958215109 2372.0
8.974926378 2391.0
8.991637647 2410.0
9.008348916 2403.0
9.025060185 2369.0
9.041771454 2330.0
9.058482723 2522.0
9.075193992 2461.0
9.091905260 2432.0
9.108616529 2423.0
9.125327798 2392.0
9.142039067 2345.0
9.158750336 2341.0
9.175461605 2336.0
9.192172874 2363.0
9.208884143 2331.0
9.225595412 2359.0
9.242306681 2302.0
9.259017950 2440.0
9.275729219 2388.0
9.292440488 2347.0
9.309151757 2267.0
9.325863026 2277.0
9.342574295 2427.0
9.359285564 2234.0
9.375996833 2315.0
9.392708102 2378.0
9.409419371 2284.0
9.426130640 2402.0
9.442841909 2348.0
9.459553178 2320.0
9.476264447 2300.0
9.492975716 2275.0
9.509686985 2222.0
9.526398254 2324.0
9.543109523 2325.0
9.559820792 2287.0
9.576532061 2355.0
9.593243330 2322.0
9.609954599 2276.0
9.626665868 2279.0
9.643377137 2261.0
9.660088406 2232.0
9.676799675 2326.0
9.693510944 2245.0
9.710222213 2295.0
9.726933482 2311.0
9.743644751 2307.0
9.760356020 2213.0
9.777067289 2245.0
9.793778558 2224.0
9.810489827 2192.0
9.827201095 2263.0
9.843912364 2274.0
9.860623633 2269.0
9.877334902 2272.0
9.894046171 2217.0
9.910757440 2209.0
9.927468709 2193.0
9.944179978 2152.0
9.960891247 2189.0
9.977602516 2164.0
9.994313785 2245.0
10.011025054 2279.0
10.027736323 2216.0
10.044447592 2172.0
10.061158861 2147.0
10.077870130 2248.0
10.094581399 2133.0
10.111292668 2158.0
10.128003937 2208.0
10.144715206 2034.0
10.161426475 2166.0
10.178137744 2124.0
10.194849013 2222.0
10.211560282 2218.0
10.228271551 2143.0
10.244982820 2195.0
10.261694089 2242.0
10.278405358 2142.0
10.295116627 2166.0
10.311827896 2125.0
10.328539165 2219.0
10.345250434 2193.0
10.361961703 2043.0
10.378672972 2100.0
10.395384241 2230.0
10.412095510 2132.0
10.428806779 2178.0
10.445518048 2110.0
10.462229317 2164.0
10.478940586 2135.0
10.495651855 2056.0
10.512363124 2043.0
10.529074393 2105.0
10.545785662 2051.0
10.562496930 2018.0
10.579208199 2056.0
10.595919468 2116.0
10.612630737 2000.0
10.629342006 2079.0
10.646053275 2089.0
10.662764544 2006.0
10.679475813 2052.0
10.696187082 1928.0
10.712898351 2066.0
10.729609620 2109.0
10.746320889 2078.0
10.763032158 2007.0
10.779743427 2083.0
10.796454696 2054.0
10.813165965 1962.0
10.829877234 2023.0
10.846588503 2063.0
10.863299772 1978.0
10.880011041 2001.0
10.896722310 1965.0
10.913433579 2024.0
10.930144848 2017.0
10.946856117 1970.0
10.963567386 1958.0
10.980278655 1943.0
10.996989924 1957.0
11.013701193 1966.0
11.030412462 1927.0
11.047123731 2007.0
11.063835000 1921.0
11.080546269 1994.0
11.097257538 1928.0
11.113968807 1901.0
11.130680076 1960.0
11.147391345 1889.0
11.164102614 2002.0
11.180813883 1917.0
11.197525152 1940.0
11.214236421 1991.0
11.230947690 1916.0
11.247658959 1936.0
11.264370228 1938.0
11.281081497 1863.0
11.297792765 1950.0
11.314504034 1891.0
11.331215303 1865.0
11.347926572 1881.0
11.364637841 1871.0
11.381349110 1919.0
11.398060379 1910.0
11.414771648 1895.0
11.431482917 1937.0
11.448194186 1887.0
11.464905455 1902.0
11.481616724 1871.0
11.498327993 1840.0
11.515039262 1781.0
11.531750531 1838.0
11.548461800 1886.0
11.565173069 1941.0
11.581884338 1926.0
11.598595607 1838.0
11.615306876 1809.0
11.632018145 1853.0
11.648729414 1817.0
11.665440683 1845.0
11.682151952 1800.0
11.698863221 1775.0
11.715574490 1787.0
11.732285759 1792.0
11.748997028 1829.0
11.765708297 1912.0
11.782419566 1859.0
11.799130835 1860.0
11.815842104 1779.0
11.832553373 1840.0
11.849264642 1825.0
11.865975911 1766.0
11.882687180 1796.0
11.899398449 1800.0
11.916109718 1789.0
11.932820987 1829.0
11.949532256 1796.0
11.966243525 1843.0
11.982954794 1889.0
11.999666063 1786.0
12.016377332 1737.0
12.033088601 1720.0
12.049799869 1713.0
12.066511138 1795.0
12.083222407 1702.0
12.099933676 1697.0
12.116644945 1813.0
12.133356214 1725.0
12.150067483 1795.0
12.166778752 1767.0
12.183490021 1671.0
12.200201290 1678.0
12.216912559 1679.0
12.233623828 1757.0
12.250335097 1608.0
12.267046366 1734.0
12.283757635 1750.0
12.300468904 1637.0
12.317180173 1710.0
12.333891442 1738.0
12.350602711 1697.0
12.367313980 1666.0
12.384025249 1673.0
12.400736518 1634.0
12.417447787 1699.0
12.434159056 1675.0
12.450870325 1730.0
12.467581594 1658.0
12.484292863 1599.0
12.501004132 1678.0
12.517715401 1651.0
12.534426670 1673.0
12.551137939 1697.0
12.567849208 1609.0
12.584560477 1650.0
12.601271746 1685.0
12.617983015 1585.0
12.634694284 1566.0
12.651405553 1577.0
12.668116822 1691.0
12.684828091 1606.0
12.701539360 1596.0
12.718250629 1553.0
12.734961898 1665.0
12.751673167 1581.0
12.768384436 1528.0
12.785095704 1670.0
12.801806973 1514.0
12.818518242 1551.0
12.835229511 1591.0
12.851940780 1702.0
12.868652049 1647.0
12.885363318 1594.0
12.902074587 1638.0
12.918785856 1555.0
12.935497125 1571.0
12.952208394 1561.0
12.968919663 1528.0
12.985630932 1540.0
13.002342201 1551.0
13.019053470 1610.0
13.035764739 1537.0
13.052476008 1491.0
13.069187277 1572.0
13.085898546 1532.0
13.102609815 1523.0
13.119321084 1499.0
13.136032353 1549.0
13.152743622 1544.0
13.169454891 1499.0
13.186166160 1537.0
13.202877429 1536.0
13.219588698 1432.0
13.236299967 1505.0
13.253011236 1464.0
13.269722505 1508.0
13.286433774 1436.0
13.303145043 1440.0
13.319856312 1473.0
13.336567581 1439.0
13.353278850 1473.0
13.369990119 1493.0
13.386701388 1468.0
13.403412657 1506.0
13.420123926 1450.0
13.436835195 1487.0
13.453546464 1391.0
13.470257733 1403.0
13.486969002 1530.0
13.503680271 1388.0
13.520391539 1505.0
13.537102808 1452.0
13.553814077 1466.0
13.570525346 1424.0
13.587236615 1484.0
13.603947884 1451.0
13.620659153 1365.0
13.637370422 1391.0
13.654081691 1438.0
13.670792960 1375.0
13.687504229 1464.0
13.704215498 1409.0
13.720926767 1414.0
13.737638036 1485.0
13.754349305 1386.0
13.771060574 1369.0
13.787771843 1323.0
13.804483112 1346.0
13.821194381 1369.0
13.837905650 1357.0
13.854616919 1420.0
13.871328188 1305.0
13.888039457 1365.0
13.904750726 1355.0
13.921461995 1326.0
13.938173264 1392.0
13.954884533 1394.0
13.971595802 1403.0
13.988307071 1334.0
14.005018340 1370.0
14.021729609 1309.0
14.038440878 1372.0
14.055152147 1332.0
14.071863416 1315.0
14.088574685 1332.0
14.105285954 1295.0
14.121997223 1309.0
14.138708492 1337.0
14.155419761 1318.0
14.172131030 1361.0
14.188842299 1355.0
14.205553568 1334.0
14.222264837 1273.0
14.238976106 1290.0
14.255687374 1309.0
14.272398643 1328.0
14.289109912 1296.0
14.305821181 1421.0
14.322532450 1238.0
14.339243719 1339.0
14.355954988 1284.0
14.372666257 1342.0
14.389377526 1307.0
14.406088795 1356.0
14.422800064 1234.0
14.439511333 1280.0
14.456222602 1318.0
14.472933871 1317.0
14.489645140 1274.0
14.506356409 1205.0
14.523067678 1308.0
14.539778947 1248.0
14.556490216 1248.0
14.573201485 1196.0
14.589912754 1214.0
14.606624023 1202.0
14.623335292 1268.0
14.640046561 1178.0
14.656757830 1315.0
14.673469099 1206.0
14.690180368 1223.0
14.706891637 1246.0
14.723602906 1205.0
14.740314175 1185.0
14.757025444 1225.0
14.773736713 1176.0
14.790447982 1244.0
14.807159251 1317.0
14.823870520 1240.0
14.840581789 1277.0
14.857293058 1197.0
14.874004327 1243.0
14.890715596 1270.0
14.907426865 1237.0
14.924138134 1193.0
14.940849403 1245.0
14.957560672 1286.0
14.974271941 1286.0
14.990983209 1385.0
15.007694478 1316.0
15.024405747 1396.0
15.041117016 1551.0
15.057828285 1601.0
15.074539554 1879.0
15.091250823 2034.0
15.107962092 2352.0
15.124673361 2761.0
15.141384630 2879.0
15.158095899 2845.0
15.174807168 2520.0
15.191518437 2257.0
15.208229706 1996.0
15.224940975 1641.0
15.241652244 1394.0
15.258363513 1278.0
15.275074782 1233.0
15.291786051 1268.0
15.308497320 1171.0
15.325208589 1155.0
15.341919858 1104.0
15.358631127 1165.0
15.375342396 1099.0
15.392053665 1150.0
15.408764934 1158.0
15.425476203 1097.0
15.442187472 1150.0
15.458898741 1205.0
15.475610010 1144.0
15.492321279 1123.0
15.509032548 1161.0
15.525743817 1115.0
15.542455086 1064.0
15.559166355 1114.0
15.575877624 1098.0
15.592588893 1117.0
15.609300162 1163.0
15.626011431 1117.0
15.642722700 1147.0
15.659433969 1094.0
15.676145238 1115.0
15.692856507 1085.0
15.709567776 1075.0
15.726279045 1114.0
15.742990313 1094.0
15.759701582 1100.0
15.776412851 1146.0
15.793124120 1093.0
15.809835389 1133.0
15.826546658 1083.0
15.843257927 1117.0
15.859969196 1066.0
15.876680465 1036.0
15.893391734 1114.0
15.910103003 1053.0
15.926814272 1131.0
15.943525541 1117.0
15.960236810 1128.0
15.976948079 1076.0
15.993659348 1055.0
16.010370617 1046.0
16.027081886 1061.0
16.043793155 1072.0
16.060504424 1075.0
16.077215693 1091.0
16.093926962 1096.0
16.110638231 1022.0
16.127349500 1084.0
16.144060769 987.0
16.160772038 1112.0
16.177483307 1092.0
16.194194576 1123.0
16.210905845 1028.0
16.227617114 1116.0
16.244328383 1090.0
16.261039652 1021.0
16.277750921 983.0
16.294462190 1137.0
16.311173459 1072.0
16.327884728 1105.0
16.344595997 1053.0
16.361307266 1006.0
16.378018535 983.0
16.394729804 1096.0
16.411441073 1026.0
16.428152342 1046.0
16.444863611 1051.0
16.461574880 1070.0
16.478286148 1030.0
16.494997417 1045.0
16.511708686 1016.0
16.528419955 1036.0
16.545131224 1027.0
16.561842493 1040.0
16.578553762 1045.0
16.595265031 1027.0
16.611976300 1040.0
16.628687569 996.0
16.645398838 1048.0
16.662110107 1105.0
16.678821376 1019.0
16.695532645 995.0
16.712243914 1046.0
16.728955183 1003.0
16.745666452 1036.0
16.762377721 1003.0
16.779088990 1058.0
16.795800259 1011.0
16.812511528 976.0
16.829222797 1029.0
16.845934066 971.0
16.862645335 987.0
16.879356604 976.0
16.896067873 1002.0
16.912779142 974.0
16.929490411 1012.0
16.946201680 993.0
16.962912949 1054.0
16.979624218 1016.0
16.996335487 1021.0
17.013046756 1091.0
17.029758025 978.0
17.046469294 960.0
17.063180563 999.0
17.079891832 973.0
17.096603101 1010.0
17.113314370 1027.0
17.130025639 1001.0
17.146736908 1061.0
17.163448177 994.0
17.180159446 963.0
17.196870715 908.0
17.213581983 921.0
17.230293252 1013.0
17.247004521 1068.0
17.263715790 988.0
17.280427059 989.0
17.297138328 944.0
17.313849597 1046.0
17.330560866 965.0
17.347272135 996.0
17.363983404 1036.0
17.380694673 998.0
17.397405942 927.0
17.414117211 965.0
17.430828480 940.0
17.447539749 1045.0
17.464251018 984.0
17.480962287 1012.0
17.497673556 992.0
17.514384825 1022.0
17.531096094 1003.0
17.547807363 925.0
17.564518632 972.0
17.581229901 964.0
17.597941170 1033.0
17.614652439 981.0
17.631363708 972.0
17.648074977 952.0
17.664786246 970.0
17.681497515 979.0
17.698208784 970.0
17.714920053 930.0
17.731631322 940.0
17.748342591 942.0
17.765053860 972.0
17.781765129 991.0
17.798476398 1010.0
17.815187667 982.0
17.831898936 963.0
17.848610205 922.0
17.865321474 990.0
17.882032743 1030.0
17.898744012 983.0
17.915455281 938.0
17.932166550 1010.0
17.948877818 958.0
17.965589087 981.0
17.982300356 963.0
17.999011625 1013.0
18.015722894 947.0
18.032434163 971.0
18.049145432 994.0
18.065856701 961.0
18.082567970 1017.0
18.099279239 914.0
18.115990508 971.0
18.132701777 960.0
18.149413046 885.0
18.166124315 918.0
18.182835584 928.0
18.199546853 890.0
18.216258122 975.0
18.232969391 943.0
18.249680660 886.0
18.266391929 990.0
18.283103198 865.0
18.299814467 935.0
18.316525736 929.0
18.333237005 931.0
18.349948274 922.0
18.366659543 912.0
18.383370812 901.0
18.400082081 935.0
18.416793350 894.0
18.433504619 914.0
18.450215888 955.0
18.466927157 942.0
18.483638426 852.0
18.500349695 929.0
18.517060964 961.0
18.533772233 882.0
18.550483502 915.0
18.567194771 890.0
18.583906040 895.0
18.600617309 912.0
18.617328578 889.0
18.634039847 870.0
18.650751116 915.0
18.667462385 933.0
18.684173654 911.0
18.700884922 922.0
18.717596191 914.0
18.734307460 948.0
18.751018729 941.0
18.767729998 909.0
18.784441267 869.0
18.801152536 881.0
18.817863805 972.0
18.834575074 933.0
18.851286343 927.0
18.867997612 882.0
18.884708881 885.0
18.901420150 885.0
18.918131419 869.0
18.934842688 929.0
18.951553957 888.0
18.968265226 867.0
18.984976495 917.0
19.001687764 894.0
19.018399033 893.0
19.035110302 922.0
19.051821571 904.0
19.068532840 961.0
19.085244109 861.0
19.101955378 937.0
19.118666647 893.0
19.135377916 882.0
19.152089185 804.0
19.168800454 933.0
19.185511723 927.0
19.202222992 885.0
19.218934261 908.0
19.235645530 868.0
19.252356799 888.0
19.269068068 936.0
19.285779337 882.0
19.302490606 958.0
19.319201875 883.0
19.335913144 917.0
19.352624413 902.0
19.369335682 924.0
19.386046951 903.0
19.402758220 927.0
19.419469489 935.0
19.436180757 961.0
19.452892026 918.0
19.469603295 915.0
19.486314564 886.0
19.503025833 864.0
19.519737102 944.0
19.536448371 935.0
19.553159640 930.0
19.569870909 917.0
19.586582178 914.0
19.603293447 964.0
19.620004716 876.0
19.636715985 869.0
19.653427254 870.0
19.670138523 850.0
19.686849792 919.0
19.703561061 898.0
19.720272330 857.0
19.736983599 916.0
19.753694868 905.0
19.770406137 876.0
19.787117406 872.0
19.803828675 890.0
19.820539944 932.0
19.837251213 892.0
19.853962482 862.0
19.870673751 881.0
19.887385020 891.0
19.904096289 902.0
19.920807558 874.0
19.937518827 894.0
19.954230096 862.0
19.970941365 850.0
19.987652634 831.0
20.004363903 902.0
20.021075172 842.0
20.037786441 817.0
20.054497710 909.0
20.071208979 843.0
20.087920248 862.0
20.104631517 823.0
20.121342786 823.0
20.138054055 862.0
20.154765324 931.0
20.171476592 879.0
20.188187861 894.0
20.204899130 855.0
20.221610399 822.0
20.238321668 845.0
20.255032937 805.0
20.271744206 865.0
20.288455475 895.0
20.305166744 826.0
20.321878013 905.0
20.338589282 918.0
20.355300551 870.0
20.372011820 877.0
20.388723089 886.0
20.405434358 887.0
20.422145627 906.0
20.438856896 890.0
20.455568165 890.0
20.472279434 844.0
20.488990703 865.0
20.505701972 923.0
20.522413241 916.0
20.539124510 934.0
20.555835779 935.0
20.572547048 931.0
20.589258317 903.0
20.605969586 923.0
20.622680855 896.0
20.639392124 871.0
20.656103393 877.0
20.672814662 878.0
20.689525931 867.0
20.706237200 842.0
20.722948469 853.0
20.739659738 866.0
20.756371007 820.0
20.773082276 856.0
20.789793545 882.0
20.806504814 848.0
20.823216083 800.0
20.839927352 850.0
20.856638621 833.0
20.873349890 830.0
20.890061159 892.0
20.906772427 869.0
20.923483696 877.0
20.940194965 891.0
20.956906234 897.0
20.973617503 810.0
20.990328772 803.0
21.007040041 811.0
21.023751310 828.0
21.040462579 904.0
21.057173848 864.0
21.073885117 898.0
21.090596386 867.0
21.107307655 826.0
21.124018924 858.0
21.140730193 888.0
21.157441462 833.0
21.174152731 880.0
21.190864000 868.0
21.207575269 872.0
21.224286538 905.0
21.240997807 880.0
21.257709076 834.0
21.274420345 862.0
21.291131614 828.0
21.307842883 840.0
21.324554152 874.0
21.341265421 869.0
21.357976690 856.0
21.374687959 886.0
21.391399228 859.0
21.408110497 870.0
21.424821766 889.0
21.441533035 924.0
21.458244304 833.0
21.474955573 810.0
21.491666842 831.0
21.508378111 829.0
21.525089380 814.0
21.541800649 886.0
21.558511918 861.0
21.575223187 908.0
21.591934456 909.0
21.608645725 930.0
21.625356994 879.0
21.642068262 896.0
21.658779531 843.0
21.675490800 847.0
21.692202069 859.0
21.708913338 873.0
21.725624607 858.0
21.742335876 863.0
21.759047145 864.0
21.775758414 834.0
21.792469683 810.0
21.809180952 891.0
21.825892221 823.0
21.842603490 832.0
21.859314759 864.0
21.876026028 833.0
21.892737297 871.0
21.909448566 845.0
21.926159835 821.0
21.942871104 851.0
21.959582373 924.0
21.976293642 914.0
21.993004911 852.0
22.009716180 815.0
22.026427449 902.0
22.043138718 881.0
22.059849987 919.0
22.076561256 826.0
22.093272525 843.0
22.109983794 856.0
22.126695063 919.0
22.143406332 910.0
22.160117601 882.0
22.176828870 832.0
22.193540139 914.0
22.210251408 857.0
22.226962677 855.0
22.243673946 914.0
22.260385215 880.0
22.277096484 881.0
22.293807753 864.0
22.310519022 869.0
22.327230291 797.0
22.343941560 832.0
22.360652829 855.0
22.377364098 875.0
22.394075366 890.0
22.410786635 841.0
22.427497904 885.0
22.444209173 919.0
22.460920442 871.0
22.477631711 882.0
22.494342980 875.0
22.511054249 970.0
22.527765518 905.0
22.544476787 903.0
22.561188056 909.0
22.577899325 968.0
22.594610594 1045.0
22.611321863 1076.0
22.628033132 999.0
22.644744401 1110.0
22.661455670 1276.0
22.678166939 1379.0
22.694878208 1534.0
22.711589477 1868.0
22.728300746 2242.0
22.745012015 2873.0
22.761723284 3681.0
22.778434553 4622.0
22.795145822 5531.0
22.811857091 5980.0
22.828568360 6195.0
22.845279629 5920.0
22.861990898 5388.0
22.878702167 4510.0
22.895413436 3767.0
22.912124705 2933.0
22.928835974 2412.0
22.945547243 1944.0
22.962258512 1641.0
22.978969781 1350.0
22.995681050 1302.0
23.012392319 1279.0
23.029103588 1289.0
23.045814857 1227.0
23.062526126 1313.0
23.079237395 1333.0
23.095948664 1429.0
23.112659933 1453.0
23.129371201 1437.0
23.146082470 1451.0
23.162793739 1405.0
23.179505008 1289.0
23.196216277 1288.0
23.212927546 1175.0
23.229638815 1091.0
23.246350084 1032.0
23.263061353 984.0
23.279772622 952.0
23.296483891 923.0
23.313195160 894.0
23.329906429 866.0
23.346617698 868.0
23.363328967 916.0
23.380040236 918.0
23.396751505 898.0
23.413462774 844.0
23.430174043 812.0
23.446885312 860.0
23.463596581 885.0
23.480307850 791.0
23.497019119 838.0
23.513730388 834.0
23.530441657 816.0
23.547152926 835.0
23.563864195 899.0
23.580575464 836.0
23.597286733 831.0
23.613998002 872.0
23.630709271 934.0
23.647420540 897.0
23.664131809 946.0
23.680843078 993.0
23.697554347 925.0
23.714265616 1005.0
23.730976885 1028.0
23.747688154 1084.0
23.764399423 1063.0
23.781110692 1155.0
23.797821961 1109.0
23.814533230 1219.0
23.831244499 1275.0
23.847955768 1250.0
23.864667036 1220.0
23.881378305 1190.0
23.898089574 1137.0
23.914800843 1096.0
23.931512112 1091.0
23.948223381 1055.0
23.964934650 1031.0
23.981645919 995.0
23.998357188 1054.0
24.015068457 1000.0
24.031779726 1024.0
24.048490995 1036.0
24.065202264 989.0
24.081913533 990.0
24.098624802 1014.0
24.115336071 953.0
24.132047340 1027.0
24.148758609 957.0
24.165469878 970.0
24.182181147 986.0
24.198892416 928.0
24.215603685 1066.0
24.232314954 1004.0
24.249026223 1064.0
24.265737492 1028.0
24.282448761 964.0
24.299160030 927.0
24.315871299 944.0
24.332582568 872.0
24.349293837 861.0
24.366005106 929.0
24.382716375 909.0
24.399427644 873.0
24.416138913 880.0
24.432850182 847.0
24.449561451 856.0
24.466272720 797.0
24.482983989 846.0
24.499695258 925.0
24.516406527 844.0
24.533117796 868.0
24.549829065 823.0
24.566540334 836.0
24.583251603 810.0
24.599962871 813.0
24.616674140 886.0
24.633385409 845.0
24.650096678 883.0
24.666807947 817.0
24.683519216 788.0
24.700230485 848.0
24.716941754 840.0
24.733653023 832.0
24.750364292 827.0
24.767075561 802.0
24.783786830 810.0
24.800498099 828.0
24.817209368 824.0
24.833920637 838.0
24.850631906 890.0
24.867343175 833.0
24.884054444 827.0
24.900765713 880.0
24.917476982 810.0
24.934188251 852.0
24.950899520 820.0
24.967610789 821.0
24.984322058 709.0
25.001033327 870.0
25.017744596 827.0
25.034455865 823.0
25.051167134 804.0
25.067878403 855.0
25.084589672 845.0
25.101300941 855.0
25.118012210 810.0
25.134723479 850.0
25.151434748 804.0
25.168146017 860.0
25.184857286 788.0
25.201568555 786.0
25.218279824 797.0
25.234991093 819.0
25.251702362 831.0
25.268413631 816.0
25.285124900 822.0
25.301836169 828.0
25.318547438 850.0
25.335258706 850.0
25.351969975 857.0
25.368681244 828.0
25.385392513 798.0
25.402103782 780.0
25.418815051 834.0
25.435526320 772.0
25.452237589 813.0
25.468948858 795.0
25.485660127 762.0
25.502371396 830.0
25.519082665 793.0
25.535793934 796.0
25.552505203 802.0
25.569216472 842.0
25.585927741 793.0
25.602639010 778.0
25.619350279 817.0
25.636061548 787.0
25.652772817 861.0
25.669484086 815.0
25.686195355 812.0
25.702906624 822.0
25.719617893 794.0
25.736329162 783.0
25.753040431 762.0
25.769751700 842.0
25.786462969 795.0
25.803174238 797.0
25.819885507 811.0
25.836596776 791.0
25.853308045 789.0
25.870019314 816.0
25.886730583 816.0
25.903441852 814.0
25.920153121 829.0
25.936864390 900.0
25.953575659 855.0
25.970286928 886.0
25.986998197 863.0
26.003709466 868.0
26.020420735 877.0
26.037132004 827.0
26.053843273 819.0
26.070554542 767.0
26.087265810 774.0
26.103977079 798.0
26.120688348 777.0
26.137399617 804.0
26.154110886 784.0
26.170822155 796.0
26.187533424 822.0
26.204244693 835.0
26.220955962 825.0
26.237667231 814.0
26.254378500 804.0
26.271089769 743.0
26.287801038 817.0
26.304512307 721.0
26.321223576 807.0
26.337934845 782.0
26.354646114 805.0
26.371357383 755.0
26.388068652 823.0
26.404779921 791.0
26.421491190 827.0
26.438202459 722.0
26.454913728 823.0
26.471624997 861.0
26.488336266 810.0
26.505047535 762.0
26.521758804 840.0
26.538470073 814.0
26.555181342 877.0
26.571892611 839.0
26.588603880 864.0
26.605315149 850.0
26.622026418 836.0
26.638737687 881.0
26.655448956 871.0
26.672160225 898.0
26.688871494 871.0
26.705582763 805.0
26.722294032 792.0
26.739005301 795.0
26.755716570 844.0
26.772427839 772.0
26.789139108 765.0
26.805850377 826.0
26.822561645 832.0
26.839272914 743.0
26.855984183 822.0
26.872695452 769.0
26.889406721 759.0
26.906117990 786.0
26.922829259 807.0
26.939540528 788.0
26.956251797 734.0
26.972963066 788.0
26.989674335 862.0
27.006385604 810.0
27.023096873 776.0
27.039808142 791.0
27.056519411 801.0
27.073230680 839.0
27.089941949 791.0
27.106653218 839.0
27.123364487 803.0
27.140075756 851.0
27.156787025 765.0
27.173498294 840.0
27.190209563 894.0
27.206920832 831.0
27.223632101 838.0
27.240343370 859.0
27.257054639 809.0
27.273765908 853.0
27.290477177 844.0
27.307188446 773.0
27.323899715 867.0
27.340610984 812.0
27.357322253 860.0
27.374033522 924.0
27.390744791 995.0
27.407456060 913.0
27.424167329 1033.0
27.440878598 1101.0
27.457589867 1193.0
27.474301136 1351.0
27.491012405 1515.0
27.507723674 1535.0
27.524434943 1433.0
27.541146212 1423.0
27.557857480 1465.0
27.574568749 1391.0
27.591280018 1310.0
27.607991287 1214.0
27.624702556 1223.0
27.641413825 1219.0
27.658125094 1258.0
27.674836363 1226.0
27.691547632 1319.0
27.708258901 1318.0
27.724970170 1347.0
27.741681439 1476.0
27.758392708 1646.0
27.775103977 1633.0
27.791815246 1755.0
27.808526515 1543.0
27.825237784 1480.0
27.841949053 1433.0
27.858660322 1398.0
27.875371591 1286.0
27.892082860 1148.0
27.908794129 1060.0
27.925505398 1004.0
27.942216667 934.0
27.958927936 875.0
27.975639205 903.0
27.992350474 796.0
28.009061743 815.0
28.025773012 852.0
28.042484281 806.0
28.059195550 813.0
28.075906819 824.0
28.092618088 822.0
28.109329357 822.0
28.126040626 830.0
28.142751895 839.0
28.159463164 859.0
28.176174433 804.0
28.192885702 813.0
28.209596971 853.0
28.226308240 918.0
28.243019509 1005.0
28.259730778 973.0
28.276442047 980.0
28.293153315 1066.0
28.309864584 1176.0
28.326575853 1242.0
28.343287122 1327.0
28.359998391 1401.0
28.376709660 1462.0
28.393420929 1457.0
28.410132198 1349.0
28.426843467 1234.0
28.443554736 1126.0
28.460266005 1093.0
28.476977274 977.0
28.493688543 927.0
28.510399812 899.0
28.527111081 797.0
28.543822350 798.0
28.560533619 882.0
28.577244888 827.0
28.593956157 766.0
28.610667426 766.0
28.627378695 863.0
28.644089964 786.0
28.660801233 840.0
28.677512502 827.0
28.694223771 820.0
28.710935040 798.0
28.727646309 840.0
28.744357578 754.0
28.761068847 804.0
28.777780116 791.0
28.794491385 844.0
28.811202654 794.0
28.827913923 795.0
28.844625192 818.0
28.861336461 819.0
28.878047730 807.0
28.894758999 822.0
28.911470268 840.0
28.928181537 894.0
28.944892806 861.0
28.961604075 879.0
28.978315344 876.0
28.995026613 831.0
29.011737882 895.0
29.028449151 903.0
29.045160419 958.0
29.061871688 937.0
29.078582957 1018.0
29.095294226 1001.0
29.112005495 1063.0
29.128716764 1200.0
29.145428033 1313.0
29.162139302 1365.0
29.178850571 1476.0
29.195561840 1671.0
29.212273109 1744.0
29.228984378 1750.0
29.245695647 1580.0
29.262406916 1525.0
29.279118185 1451.0
29.295829454 1341.0
29.312540723 1242.0
29.329251992 1074.0
29.345963261 1051.0
29.362674530 909.0
29.379385799 942.0
29.396097068 915.0
29.412808337 873.0
29.429519606 807.0
29.446230875 870.0
29.462942144 907.0
29.479653413 854.0
29.496364682 908.0
29.513075951 849.0
29.529787220 866.0
29.546498489 934.0
29.563209758 819.0
29.579921027 901.0
29.596632296 859.0
29.613343565 869.0
29.630054834 894.0
29.646766103 931.0
29.663477372 969.0
29.680188641 1047.0
29.696899910 1158.0
29.713611179 1278.0
29.730322448 1568.0
29.747033717 1891.0
29.763744986 2050.0
29.780456254 2047.0
29.797167523 1789.0
29.813878792 1626.0
29.830590061 1620.0
29.847301330 1568.0
29.864012599 1360.0
29.880723868 1279.0
29.897435137 1135.0
29.914146406 1058.0
29.930857675 1040.0
29.947568944 1094.0
29.964280213 1096.0
29.980991482 1161.0
29.997702751 1255.0
30.014414020 1350.0
30.031125289 1429.0
30.047836558 1329.0
30.064547827 1278.0
30.081259096 1216.0
30.097970365 1197.0
30.114681634 1111.0
30.131392903 1033.0
30.148104172 979.0
30.164815441 935.0
30.181526710 844.0
30.198237979 878.0
30.214949248 844.0
30.231660517 780.0
30.248371786 844.0
30.265083055 836.0
30.281794324 850.0
30.298505593 864.0
30.315216862 835.0
30.331928131 847.0
30.348639400 883.0
30.365350669 961.0
30.382061938 989.0
30.398773207 1182.0
30.415484476 1289.0
30.432195745 1575.0
30.448907014 1573.0
30.465618283 1589.0
30.482329552 1439.0
30.499040821 1482.0
30.515752089 1457.0
30.532463358 1420.0
30.549174627 1315.0
30.565885896 1315.0
30.582597165 1220.0
30.599308434 1216.0
30.616019703 1236.0
30.632730972 1193.0
30.649442241 1169.0
30.666153510 1169.0
30.682864779 1106.0
30.699576048 1075.0
30.716287317 1003.0
30.732998586 1005.0
30.749709855 899.0
30.766421124 937.0
30.783132393 875.0
30.799843662 875.0
30.816554931 898.0
30.833266200 875.0
30.849977469 881.0
30.866688738 827.0
30.883400007 842.0
30.900111276 861.0
30.916822545 844.0
30.933533814 817.0
30.950245083 816.0
30.966956352 830.0
30.983667621 819.0
31.000378890 770.0
31.017090159 773.0
31.033801428 773.0
31.050512697 798.0
31.067223966 792.0
31.083935235 787.0
31.100646504 750.0
31.117357773 842.0
31.134069042 824.0
31.150780311 763.0
31.167491580 763.0
31.184202849 815.0
31.200914118 787.0
31.217625387 809.0
31.234336656 787.0
31.251047924 821.0
31.267759193 806.0
31.284470462 802.0
31.301181731 810.0
31.317893000 826.0
31.334604269 813.0
31.351315538 780.0
31.368026807 831.0
31.384738076 884.0
31.401449345 874.0
31.418160614 853.0
31.434871883 893.0
31.451583152 940.0
31.468294421 931.0
31.485005690 980.0
31.501716959 1100.0
31.518428228 1297.0
31.535139497 1444.0
31.551850766 1518.0
31.568562035 1378.0
31.585273304 1184.0
31.601984573 1329.0
31.618695842 1292.0
31.635407111 1182.0
31.652118380 1072.0
31.668829649 1083.0
31.685540918 1052.0
31.702252187 985.0
31.718963456 1007.0
31.735674725 975.0
31.752385994 916.0
31.769097263 949.0
31.785808532 1002.0
31.802519801 906.0
31.819231070 1023.0
31.835942339 1043.0
31.852653608 1094.0
31.869364877 1130.0
31.886076146 1203.0
31.902787415 1156.0
31.919498684 1102.0
31.936209953 1124.0
31.952921222 1079.0
31.969632491 1110.0
31.986343759 1068.0
32.003055028 971.0
32.019766297 930.0
32.036477566 998.0
32.053188835 994.0
32.069900104 957.0
32.086611373 1007.0
32.103322642 971.0
32.120033911 977.0
32.136745180 1040.0
32.153456449 1048.0
32.170167718 1047.0
32.186878987 1107.0
32.203590256 1121.0
32.220301525 1099.0
32.237012794 1210.0
32.253724063 1184.0
32.270435332 1295.0
32.287146601 1228.0
32.303857870 1437.0
32.320569139 1485.0
32.337280408 1745.0
32.353991677 1911.0
32.370702946 2281.0
32.387414215 2763.0
32.404125484 3313.0
32.420836753 4181.0
32.437548022 5530.0
32.454259291 7415.0
32.470970560 9302.0
32.487681829 10658.0
32.504393098 11437.0
32.521104367 11443.0
32.537815636 11149.0
32.554526905 11077.0
32.571238174 10926.0
32.587949443 10630.0
32.604660712 10184.0
32.621371981 10241.0
32.638083250 10586.0
32.654794519 11526.0
32.671505788 13516.0
32.688217057 16444.0
32.704928326 18769.0
32.721639595 20533.0
32.738350863 21163.0
32.755062132 20841.0
32.771773401 19410.0
32.788484670 16897.0
32.805195939 14292.0
32.821907208 12557.0
32.838618477 10823.0
32.855329746 8575.0
32.872041015 6258.0
32.888752284 4617.0
32.905463553 3427.0
32.922174822 2662.0
32.938886091 2185.0
32.955597360 2016.0
32.972308629 1778.0
32.989019898 1596.0
33.005731167 1584.0
33.022442436 1440.0
33.039153705 1515.0
33.055864974 1527.0
33.072576243 1442.0
33.089287512 1300.0
33.105998781 1293.0
33.122710050 1259.0
33.139421319 1239.0
33.156132588 1238.0
33.172843857 1146.0
33.189555126 1136.0
33.206266395 1001.0
33.222977664 996.0
33.239688933 1041.0
33.256400202 988.0
33.273111471 998.0
33.289822740 941.0
33.306534009 937.0
33.323245278 984.0
33.339956547 958.0
33.356667816 978.0
33.373379085 970.0
33.390090354 934.0
33.406801623 921.0
33.423512892 960.0
33.440224161 909.0
33.456935430 955.0
33.473646698 961.0
33.490357967 893.0
33.507069236 942.0
33.523780505 963.0
33.540491774 898.0
33.557203043 917.0
33.573914312 1013.0
33.590625581 1014.0
33.607336850 1071.0
33.624048119 1044.0
33.640759388 1087.0
33.657470657 1074.0
33.674181926 981.0
33.690893195 1032.0
33.707604464 1052.0
33.724315733 1114.0
33.741027002 1043.0
33.757738271 1034.0
33.774449540 1067.0
33.791160809 1054.0
33.807872078 1088.0
33.824583347 1074.0
33.841294616 1042.0
33.858005885 1060.0
33.874717154 1061.0
33.891428423 1073.0
33.908139692 1038.0
33.924850961 1017.0
33.941562230 1018.0
33.958273499 979.0
33.974984768 1020.0
33.991696037 985.0
34.008407306 1014.0
34.025118575 1007.0
34.041829844 933.0
34.058541113 897.0
34.075252382 932.0
34.091963651 936.0
34.108674920 901.0
34.125386189 861.0
34.142097458 948.0
34.158808727 855.0
34.175519996 834.0
34.192231265 876.0
34.208942533 867.0
34.225653802 904.0
34.242365071 879.0
34.259076340 942.0
34.275787609 829.0
34.292498878 868.0
34.309210147 872.0
34.325921416 839.0
34.342632685 883.0
34.359343954 895.0
34.376055223 869.0
34.392766492 896.0
34.409477761 810.0
34.426189030 910.0
34.442900299 923.0
34.459611568 863.0
34.476322837 848.0
34.493034106 915.0
34.509745375 902.0
34.526456644 917.0
34.543167913 908.0
34.559879182 963.0
34.576590451 958.0
34.593301720 962.0
34.610012989 955.0
34.626724258 948.0
34.643435527 944.0
34.660146796 973.0
34.676858065 950.0
34.693569334 876.0
34.710280603 948.0
34.726991872 900.0
34.743703141 854.0
34.760414410 873.0
34.777125679 867.0
34.793836948 924.0
34.810548217 837.0
34.827259486 847.0
34.843970755 877.0
34.860682024 936.0
34.877393293 819.0
34.894104562 890.0
34.910815831 868.0
34.927527100 855.0
34.944238368 832.0
34.960949637 863.0
34.977660906 797.0
34.994372175 859.0
35.011083444 845.0
35.027794713 788.0
35.044505982 874.0
35.061217251 881.0
35.077928520 778.0
35.094639789 831.0
35.111351058 797.0
35.128062327 826.0
35.144773596 853.0
35.161484865 874.0
35.178196134 840.0
35.194907403 811.0
35.211618672 875.0
35.228329941 873.0
35.245041210 821.0
35.261752479 958.0
35.278463748 848.0
35.295175017 860.0
35.311886286 927.0
35.328597555 907.0
35.345308824 913.0
35.362020093 981.0
35.378731362 987.0
35.395442631 907.0
35.412153900 992.0
35.428865169 872.0
35.445576438 906.0
35.462287707 989.0
35.478998976 1019.0
35.495710245 979.0
35.512421514 988.0
35.529132783 938.0
35.545844052 898.0
35.562555321 965.0
35.579266590 865.0
35.595977859 899.0
35.612689128 951.0
35.629400397 917.0
35.646111666 891.0
35.662822935 961.0
35.679534204 988.0
35.696245472 1011.0
35.712956741 970.0
35.729668010 944.0
35.746379279 872.0
35.763090548 872.0
35.779801817 924.0
35.796513086 942.0
35.813224355 840.0
35.829935624 858.0
35.846646893 866.0
35.863358162 826.0
35.880069431 802.0
35.896780700 822.0
35.913491969 840.0
35.930203238 793.0
35.946914507 804.0
35.963625776 890.0
35.980337045 868.0
35.997048314 904.0
36.013759583 875.0
36.030470852 869.0
36.047182121 855.0
36.063893390 844.0
36.080604659 826.0
36.097315928 889.0
36.114027197 853.0
36.130738466 794.0
36.147449735 833.0
36.164161004 911.0
36.180872273 889.0
36.197583542 1015.0
36.214294811 1072.0
36.231006080 1223.0
36.247717349 1297.0
36.264428618 1358.0
36.281139887 1233.0
36.297851156 1200.0
36.314562425 1173.0
36.331273694 1147.0
36.347984963 1089.0
36.364696232 1123.0
36.381407501 1058.0
36.398118770 891.0
36.414830039 869.0
36.431541307 907.0
36.448252576 831.0
36.464963845 807.0
36.481675114 751.0
36.498386383 797.0
36.515097652 766.0
36.531808921 819.0
36.548520190 801.0
36.565231459 813.0
36.581942728 819.0
36.598653997 807.0
36.615365266 788.0
36.632076535 848.0
36.648787804 804.0
36.665499073 789.0
36.682210342 805.0
36.698921611 789.0
36.715632880 763.0
36.732344149 777.0
36.749055418 787.0
36.765766687 825.0
36.782477956 755.0
36.799189225 792.0
36.815900494 776.0
36.832611763 819.0
36.849323032 834.0
36.866034301 777.0
36.882745570 785.0
36.899456839 798.0
36.916168108 795.0
36.932879377 773.0
36.949590646 778.0
36.966301915 780.0
36.983013184 757.0
36.999724453 837.0
37.016435722 850.0
37.033146991 894.0
37.049858260 887.0
37.066569529 847.0
37.083280798 820.0
37.099992067 866.0
37.116703336 884.0
37.133414605 867.0
37.150125874 851.0
37.166837142 843.0
37.183548411 840.0
37.200259680 847.0
37.216970949 832.0
37.233682218 885.0
37.250393487 813.0
37.267104756 820.0
37.283816025 829.0
37.300527294 795.0
37.317238563 836.0
37.333949832 879.0
37.350661101 792.0
37.367372370 818.0
37.384083639 825.0
37.400794908 805.0
37.417506177 817.0
37.434217446 796.0
37.450928715 844.0
37.467639984 838.0
37.484351253 791.0
37.501062522 764.0
37.517773791 782.0
37.534485060 825.0
37.551196329 800.0
37.567907598 874.0
37.584618867 768.0
37.601330136 697.0
37.618041405 715.0
37.634752674 834.0
37.651463943 783.0
37.668175212 845.0
37.684886481 801.0
37.701597750 794.0
37.718309019 795.0
37.735020288 796.0
37.751731557 808.0
37.768442826 730.0
37.785154095 790.0
37.801865364 756.0
37.818576633 728.0
37.835287902 830.0
37.851999171 754.0
37.868710440 839.0
37.885421709 792.0
37.902132977 850.0
37.918844246 776.0
37.935555515 724.0
37.952266784 773.0
37.968978053 829.0
37.985689322 790.0
38.002400591 793.0
38.019111860 786.0
38.035823129 769.0
38.052534398 811.0
38.069245667 814.0
38.085956936 787.0
38.102668205 798.0
38.119379474 852.0
38.136090743 838.0
38.152802012 815.0
38.169513281 866.0
38.186224550 863.0
38.202935819 782.0
38.219647088 829.0
38.236358357 881.0
38.253069626 874.0
38.269780895 865.0
38.286492164 919.0
38.303203433 946.0
38.319914702 936.0
38.336625971 993.0
38.353337240 1016.0
38.370048509 1023.0
38.386759778 1263.0
38.403471047 1418.0
38.420182316 1600.0
38.436893585 1982.0
38.453604854 2476.0
38.470316123 3332.0
38.487027392 4200.0
38.503738661 4860.0
38.520449930 4953.0
38.537161199 5122.0
38.553872468 5415.0
38.570583737 5555.0
38.587295006 5673.0
38.604006275 5462.0
38.620717544 5010.0
38.637428812 4532.0
38.654140081 4231.0
38.670851350 3914.0
38.687562619 3496.0
38.704273888 3200.0
38.720985157 2920.0
38.737696426 2594.0
38.754407695 2345.0
38.771118964 2067.0
38.787830233 1828.0
38.804541502 1572.0
38.821252771 1540.0
38.837964040 1410.0
38.854675309 1343.0
38.871386578 1248.0
38.888097847 1208.0
38.904809116 1064.0
38.921520385 1110.0
38.938231654 1017.0
38.954942923 1019.0
38.971654192 957.0
38.988365461 1037.0
39.005076730 1045.0
39.021787999 989.0
39.038499268 941.0
39.055210537 904.0
39.071921806 961.0
39.088633075 975.0
39.105344344 896.0
39.122055613 907.0
39.138766882 880.0
39.155478151 873.0
39.172189420 861.0
39.188900689 856.0
39.205611958 856.0
39.222323227 802.0
39.239034496 820.0
39.255745765 898.0
39.272457034 844.0
39.289168303 869.0
39.305879572 855.0
39.322590841 872.0
39.339302110 878.0
39.356013379 856.0
39.372724648 855.0
39.389435916 877.0
39.406147185 850.0
39.422858454 833.0
39.439569723 847.0
39.456280992 811.0
39.472992261 824.0
39.489703530 803.0
39.506414799 814.0
39.523126068 836.0
39.539837337 829.0
39.556548606 811.0
39.573259875 795.0
39.589971144 839.0
39.606682413 820.0
39.623393682 769.0
39.640104951 744.0
39.656816220 771.0
39.673527489 788.0
39.690238758 770.0
39.706950027 799.0
39.723661296 840.0
39.740372565 859.0
39.757083834 812.0
39.773795103 852.0
39.790506372 781.0
39.807217641 831.0
39.823928910 857.0
39.840640179 867.0
39.857351448 897.0
39.874062717 856.0
39.890773986 865.0
39.907485255 969.0
39.924196524 1012.0
39.940907793 973.0
39.957619062 1079.0
39.974330331 977.0
39.991041600 1027.0
40.007752869 966.0
40.024464138 976.0
40.041175407 956.0
40.057886676 942.0
40.074597945 1007.0
40.091309214 1011.0
40.108020483 989.0
40.124731751 950.0
40.141443020 968.0
40.158154289 1039.0
40.174865558 1108.0
40.191576827 1262.0
40.208288096 1390.0
40.224999365 1719.0
40.241710634 2190.0
40.258421903 2819.0
40.275133172 3591.0
40.291844441 4198.0
40.308555710 4307.0
40.325266979 3773.0
40.341978248 3106.0
40.358689517 2752.0
40.375400786 2634.0
40.392112055 2630.0
40.408823324 2665.0
40.425534593 2338.0
40.442245862 1941.0
40.458957131 1500.0
40.475668400 1322.0
40.492379669 1069.0
40.509090938 1012.0
40.525802207 991.0
40.542513476 965.0
40.559224745 937.0
40.575936014 989.0
40.592647283 935.0
40.609358552 1011.0
40.626069821 1011.0
40.642781090 1108.0
40.659492359 1102.0
40.676203628 1083.0
40.692914897 1038.0
40.709626166 894.0
40.726337435 987.0
40.743048704 919.0
40.759759973 932.0
40.776471242 995.0
40.793182511 940.0
40.809893780 841.0
40.826605049 797.0
40.843316318 857.0
40.860027586 837.0
40.876738855 801.0
40.893450124 791.0
40.910161393 809.0
40.926872662 760.0
40.943583931 778.0
40.960295200 812.0
40.977006469 819.0
40.993717738 786.0
41.010429007 831.0
41.027140276 775.0
41.043851545 781.0
41.060562814 803.0
41.077274083 816.0
41.093985352 813.0
41.110696621 869.0
41.127407890 863.0
41.144119159 802.0
41.160830428 832.0
41.177541697 796.0
41.194252966 805.0
41.210964235 798.0
41.227675504 844.0
41.244386773 852.0
41.261098042 827.0
41.277809311 852.0
41.294520580 888.0
41.311231849 902.0
41.327943118 940.0
41.344654387 822.0
41.361365656 812.0
41.378076925 839.0
41.394788194 878.0
41.411499463 871.0
41.428210732 888.0
41.444922001 836.0
41.461633270 804.0
41.478344539 807.0
41.495055808 785.0
41.511767077 802.0
41.528478346 791.0
41.545189615 760.0
41.561900884 798.0
41.578612153 855.0
41.595323421 778.0
41.612034690 827.0
41.628745959 815.0
41.645457228 850.0
41.662168497 868.0
41.678879766 871.0
41.695591035 865.0
41.712302304 802.0
41.729013573 914.0
41.745724842 966.0
41.762436111 1003.0
41.779147380 990.0
41.795858649 1064.0
41.812569918 971.0
41.829281187 1075.0
41.845992456 1001.0
41.862703725 970.0
41.879414994 1033.0
41.896126263 1015.0
41.912837532 1040.0
41.929548801 1024.0
41.946260070 1005.0
41.962971339 988.0
41.979682608 939.0
41.996393877 867.0
42.013105146 900.0
42.029816415 863.0
42.046527684 922.0
42.063238953 856.0
42.079950222 916.0
42.096661491 889.0
42.113372760 881.0
42.130084029 869.0
42.146795298 822.0
42.163506567 843.0
42.180217836 799.0
42.196929105 840.0
42.213640374 863.0
42.230351643 875.0
42.247062912 879.0
42.263774181 806.0
42.280485450 836.0
42.297196719 815.0
42.313907988 822.0
42.330619256 862.0
42.347330525 849.0
42.364041794 890.0
42.380753063 860.0
42.397464332 848.0
42.414175601 907.0
42.430886870 859.0
42.447598139 917.0
42.464309408 847.0
42.481020677 894.0
42.497731946 827.0
42.514443215 853.0
42.531154484 781.0
42.547865753 852.0
42.564577022 842.0
42.581288291 823.0
42.597999560 803.0
42.614710829 780.0
42.631422098 802.0
42.648133367 814.0
42.664844636 769.0
42.681555905 774.0
42.698267174 809.0
42.714978443 755.0
42.731689712 801.0
42.748400981 751.0
42.765112250 817.0
42.781823519 866.0
42.798534788 819.0
42.815246057 799.0
42.831957326 768.0
42.848668595 810.0
42.865379864 790.0
42.882091133 798.0
42.898802402 817.0
42.915513671 820.0
42.932224940 830.0
42.948936209 805.0
42.965647478 883.0
42.982358747 849.0
42.999070016 862.0
43.015781285 874.0
43.032492554 881.0
43.049203823 873.0
43.065915092 862.0
43.082626360 830.0
43.099337629 895.0
43.116048898 829.0
43.132760167 869.0
43.149471436 804.0
43.166182705 818.0
43.182893974 744.0
43.199605243 805.0
43.216316512 813.0
43.233027781 836.0
43.249739050 804.0
43.266450319 772.0
43.283161588 859.0
43.299872857 793.0
43.316584126 795.0
43.333295395 776.0
43.350006664 796.0
43.366717933 827.0
43.383429202 808.0
43.400140471 880.0
43.416851740 771.0
43.433563009 825.0
43.450274278 809.0
43.466985547 813.0
43.483696816 851.0
43.500408085 836.0
43.517119354 841.0
43.533830623 852.0
43.550541892 886.0
43.567253161 929.0
43.583964430 906.0
43.600675699 929.0
43.617386968 919.0
43.634098237 855.0
43.650809506 817.0
43.667520775 870.0
43.684232044 856.0
43.700943313 846.0
43.717654582 893.0
43.734365851 871.0
43.751077120 845.0
43.767788389 842.0
43.784499658 824.0
43.801210927 839.0
43.817922195 890.0
43.834633464 805.0
43.851344733 819.0
43.868056002 874.0
43.884767271 846.0
43.901478540 838.0
43.918189809 827.0
43.934901078 829.0
43.951612347 859.0
43.968323616 791.0
43.985034885 876.0
44.001746154 826.0
44.018457423 816.0
44.035168692 756.0
44.051879961 796.0
44.068591230 783.0
44.085302499 835.0
44.102013768 774.0
44.118725037 846.0
44.135436306 824.0
44.152147575 813.0
44.168858844 892.0
44.185570113 811.0
44.202281382 844.0
44.218992651 820.0
44.235703920 868.0
44.252415189 854.0
44.269126458 824.0
44.285837727 786.0
44.302548996 825.0
44.319260265 834.0
44.335971534 835.0
44.352682803 843.0
44.369394072 804.0
44.386105341 833.0
44.402816610 830.0
44.419527879 838.0
44.436239148 844.0
44.452950417 804.0
44.469661686 825.0
44.486372955 839.0
44.503084224 823.0
44.519795493 852.0
44.536506762 867.0
44.553218030 921.0
44.569929299 936.0
44.586640568 928.0
44.603351837 914.0
44.620063106 888.0
44.636774375 829.0
44.653485644 890.0
44.670196913 843.0
44.686908182 926.0
44.703619451 919.0
44.720330720 883.0
44.737041989 912.0
44.753753258 931.0
44.770464527 889.0
44.787175796 870.0
44.803887065 862.0
44.820598334 851.0
44.837309603 832.0
44.854020872 868.0
44.870732141 833.0
44.887443410 892.0
44.904154679 846.0
44.920865948 873.0
44.937577217 853.0
44.954288486 861.0
44.970999755 852.0
44.987711024 824.0
45.004422293 846.0
45.021133562 838.0
45.037844831 833.0
45.054556100 832.0
45.071267369 814.0
45.087978638 864.0
45.104689907 839.0
45.121401176 851.0
45.138112445 819.0
45.154823714 827.0
45.171534983 869.0
45.188246252 812.0
45.204957521 866.0
45.221668790 825.0
45.238380059 910.0
45.255091328 881.0
45.271802597 968.0
45.288513865 884.0
45.305225134 976.0
45.321936403 893.0
45.338647672 917.0
45.355358941 965.0
45.372070210 942.0
45.388781479 992.0
45.405492748 1123.0
45.422204017 1106.0
45.438915286 1058.0
45.455626555 1181.0
45.472337824 1278.0
45.489049093 1312.0
45.505760362 1250.0
45.522471631 1118.0
45.539182900 1170.0
45.555894169 1047.0
45.572605438 1057.0
45.589316707 1046.0
45.606027976 1057.0
45.622739245 1049.0
45.639450514 1035.0
45.656161783 938.0
45.672873052 928.0
45.689584321 904.0
45.706295590 847.0
45.723006859 883.0
45.739718128 892.0
45.756429397 864.0
45.773140666 822.0
45.789851935 864.0
45.806563204 766.0
45.823274473 836.0
45.839985742 863.0
45.856697011 838.0
45.873408280 858.0
45.890119549 850.0
45.906830818 861.0
45.923542087 888.0
45.940253356 956.0
45.956964625 850.0
45.973675894 825.0
45.990387163 802.0
46.007098432 858.0
46.023809701 838.0
46.040520969 860.0
46.057232238 900.0
46.073943507 824.0
46.090654776 866.0
46.107366045 792.0
46.124077314 840.0
46.140788583 887.0
46.157499852 841.0
46.174211121 819.0
46.190922390 816.0
46.207633659 837.0
46.224344928 864.0
46.241056197 885.0
46.257767466 834.0
46.274478735 854.0
46.291190004 871.0
46.307901273 873.0
46.324612542 911.0
46.341323811 884.0
46.358035080 998.0
46.374746349 998.0
46.391457618 990.0
46.408168887 1088.0
46.424880156 1147.0
46.441591425 1126.0
46.458302694 1259.0
46.475013963 1381.0
46.491725232 1433.0
46.508436501 1658.0
46.525147770 1923.0
46.541859039 2346.0
46.558570308 3096.0
46.575281577 3967.0
46.591992846 5246.0
46.608704115 6363.0
46.625415384 6894.0
46.642126653 6528.0
46.658837922 6326.0
46.675549191 6213.0
46.692260460 6469.0
46.708971729 6723.0
46.725682998 6988.0
46.742394267 6888.0
46.759105536 6300.0
46.775816804 5717.0
46.792528073 5016.0
46.809239342 4509.0
46.825950611 4053.0
46.842661880 3719.0
46.859373149 3292.0
46.876084418 2875.0
46.892795687 2469.0
46.909506956 2248.0
46.926218225 1999.0
46.942929494 1780.0
46.959640763 1653.0
46.976352032 1524.0
46.993063301 1379.0
47.009774570 1358.0
47.026485839 1428.0
47.043197108 1340.0
47.059908377 1368.0
47.076619646 1194.0
47.093330915 1259.0
47.110042184 1287.0
47.126753453 1263.0
47.143464722 1266.0
47.160175991 1307.0
47.176887260 1460.0
47.193598529 1439.0
47.210309798 1490.0
47.227021067 1493.0
47.243732336 1600.0
47.260443605 1663.0
47.277154874 1815.0
47.293866143 1828.0
47.310577412 1927.0
47.327288681 1959.0
47.343999950 2060.0
47.360711219 1973.0
47.377422488 1933.0
47.394133757 1980.0
47.410845026 2042.0
47.427556295 2071.0
47.444267564 2073.0
47.460978833 2000.0
47.477690102 1895.0
47.494401371 1832.0
47.511112639 1628.0
47.527823908 1526.0
47.544535177 1456.0
47.561246446 1352.0
47.577957715 1257.0
47.594668984 1250.0
47.611380253 1151.0
47.628091522 1079.0
47.644802791 1043.0
47.661514060 976.0
47.678225329 953.0
47.694936598 907.0
47.711647867 919.0
47.728359136 837.0
47.745070405 806.0
47.761781674 863.0
47.778492943 855.0
47.795204212 827.0
47.811915481 811.0
47.828626750 811.0
47.845338019 778.0
47.862049288 801.0
47.878760557 861.0
47.895471826 811.0
47.912183095 826.0
47.928894364 856.0
47.945605633 836.0
47.962316902 809.0
47.979028171 886.0
47.995739440 813.0
48.012450709 729.0
48.029161978 803.0
48.045873247 832.0
48.062584516 779.0
48.079295785 808.0
48.096007054 824.0
48.112718323 819.0
48.129429592 851.0
48.146140861 817.0
48.162852130 809.0
48.179563399 804.0
48.196274668 839.0
48.212985937 798.0
48.229697206 803.0
48.246408474 787.0
48.263119743 816.0
48.279831012 780.0
48.296542281 785.0
48.313253550 796.0
48.329964819 751.0
48.346676088 783.0
48.363387357 758.0
48.380098626 792.0
48.396809895 832.0
48.413521164 747.0
48.430232433 750.0
48.446943702 861.0
48.463654971 878.0
48.480366240 864.0
48.497077509 924.0
48.513788778 878.0
48.530500047 836.0
48.547211316 801.0
48.563922585 826.0
48.580633854 789.0
48.597345123 799.0
48.614056392 922.0
48.630767661 877.0
48.647478930 860.0
48.664190199 797.0
48.680901468 825.0
48.697612737 804.0
48.714324006 809.0
48.731035275 757.0
48.747746544 790.0
48.764457813 727.0
48.781169082 797.0
48.797880351 817.0
48.814591620 837.0
48.831302889 801.0
48.848014158 824.0
48.864725427 802.0
48.881436696 811.0
48.898147965 783.0
48.914859234 817.0
48.931570503 816.0
48.948281772 763.0
48.964993041 801.0
48.981704309 766.0
48.998415578 820.0
49.015126847 799.0
49.031838116 816.0
49.048549385 809.0
49.065260654 854.0
49.081971923 787.0
49.098683192 844.0
49.115394461 856.0
49.132105730 806.0
49.148816999 884.0
49.165528268 860.0
49.182239537 853.0
49.198950806 932.0
49.215662075 958.0
49.232373344 991.0
49.249084613 1024.0
49.265795882 877.0
49.282507151 1000.0
49.299218420 923.0
49.315929689 957.0
49.332640958 905.0
49.349352227 884.0
49.366063496 869.0
49.382774765 828.0
49.399486034 799.0
49.416197303 804.0
49.432908572 788.0
49.449619841 800.0
49.466331110 767.0
49.483042379 778.0
49.499753648 814.0
49.516464917 759.0
49.533176186 810.0
49.549887455 744.0
49.566598724 773.0
49.583309993 803.0
49.600021262 780.0
49.616732531 700.0
49.633443800 760.0
49.650155069 777.0
49.666866338 797.0
49.683577607 718.0
49.700288876 776.0
49.717000145 803.0
49.733711413 789.0
49.750422682 776.0
49.767133951 814.0
49.783845220 757.0
49.800556489 739.0
49.817267758 724.0
49.833979027 797.0
49.850690296 751.0
49.867401565 762.0
49.884112834 732.0
49.900824103 792.0
49.917535372 784.0
49.934246641 714.0
49.950957910 781.0
49.967669179 784.0
49.984380448 778.0
50.001091717 728.0
50.017802986 757.0
50.034514255 759.0
50.051225524 841.0
50.067936793 808.0
50.084648062 836.0
50.101359331 758.0
50.118070600 796.0
50.134781869 758.0
50.151493138 723.0
50.168204407 772.0
50.184915676 733.0
50.201626945 792.0
50.218338214 769.0
50.235049483 733.0
50.251760752 800.0
50.268472021 813.0
50.285183290 778.0
50.301894559 775.0
50.318605828 763.0
50.335317097 822.0
50.352028366 763.0
50.368739635 809.0
50.385450904 764.0
50.402162173 756.0
50.418873442 818.0
50.435584711 752.0
50.452295980 725.0
50.469007248 765.0
50.485718517 752.0
50.502429786 771.0
50.519141055 787.0
50.535852324 752.0
50.552563593 746.0
50.569274862 762.0
50.585986131 769.0
50.602697400 772.0
50.619408669 726.0
50.636119938 774.0
50.652831207 753.0
50.669542476 770.0
50.686253745 702.0
50.702965014 747.0
50.719676283 742.0
50.736387552 782.0
50.753098821 790.0
50.769810090 757.0
50.786521359 761.0
50.803232628 773.0
50.819943897 764.0
50.836655166 803.0
50.853366435 784.0
50.870077704 753.0
50.886788973 796.0
50.903500242 752.0
50.920211511 768.0
50.936922780 747.0
50.953634049 790.0
50.970345318 805.0
50.987056587 834.0
51.003767856 798.0
51.020479125 830.0
51.037190394 870.0
51.053901663 858.0
51.070612932 796.0
51.087324201 781.0
51.104035470 811.0
51.120746739 889.0
51.137458008 796.0
51.154169277 898.0
51.170880546 844.0
51.187591815 774.0
51.204303083 825.0
51.221014352 821.0
51.237725621 834.0
51.254436890 833.0
51.271148159 931.0
51.287859428 938.0
51.304570697 953.0
51.321281966 1000.0
51.337993235 979.0
51.354704504 970.0
51.371415773 1014.0
51.388127042 991.0
51.404838311 1069.0
51.421549580 1236.0
51.438260849 1318.0
51.454972118 1421.0
51.471683387 1502.0
51.488394656 1401.0
51.505105925 1278.0
51.521817194 1181.0
51.538528463 1155.0
51.555239732 1085.0
51.571951001 1124.0
51.588662270 1159.0
51.605373539 1098.0
51.622084808 1093.0
51.638796077 998.0
51.655507346 1022.0
51.672218615 958.0
51.688929884 883.0
51.705641153 899.0
51.722352422 887.0
51.739063691 864.0
51.755774960 833.0
51.772486229 894.0
51.789197498 838.0
51.805908767 812.0
51.822620036 824.0
51.839331305 867.0
51.856042574 805.0
51.872753843 856.0
51.889465112 823.0
51.906176381 826.0
51.922887650 781.0
51.939598918 785.0
51.956310187 794.0
51.973021456 746.0
51.989732725 774.0
52.006443994 752.0
52.023155263 772.0
52.039866532 750.0
52.056577801 750.0
52.073289070 810.0
52.090000339 788.0
52.106711608 758.0
52.123422877 791.0
52.140134146 767.0
52.156845415 761.0
52.173556684 781.0
52.190267953 786.0
52.206979222 782.0
52.223690491 772.0
52.240401760 784.0
52.257113029 760.0
52.273824298 787.0
52.290535567 795.0
52.307246836 853.0
52.323958105 812.0
52.340669374 923.0
52.357380643 973.0
52.374091912 1029.0
52.390803181 970.0
52.407514450 1013.0
52.424225719 979.0
52.440936988 905.0
52.457648257 901.0
52.474359526 973.0
52.491070795 1125.0
52.507782064 1165.0
52.524493333 1193.0
52.541204602 1183.0
52.557915871 1315.0
52.574627140 1205.0
52.591338409 1197.0
52.608049678 1183.0
52.624760947 1152.0
52.641472216 1257.0
52.658183485 1276.0
52.674894754 1335.0
52.691606022 1269.0
52.708317291 1347.0
52.725028560 1250.0
52.741739829 1231.0
52.758451098 1280.0
52.775162367 1169.0
52.791873636 1199.0
52.808584905 1147.0
52.825296174 1109.0
52.842007443 1074.0
52.858718712 1004.0
52.875429981 957.0
52.892141250 967.0
52.908852519 995.0
52.925563788 970.0
52.942275057 904.0
52.958986326 910.0
52.975697595 937.0
52.992408864 860.0
53.009120133 872.0
53.025831402 857.0
53.042542671 843.0
53.059253940 875.0
53.075965209 875.0
53.092676478 871.0
53.109387747 862.0
53.126099016 897.0
53.142810285 897.0
53.159521554 945.0
53.176232823 973.0
53.192944092 966.0
53.209655361 991.0
53.226366630 1005.0
53.243077899 960.0
53.259789168 954.0
53.276500437 939.0
53.293211706 922.0
53.309922975 930.0
53.326634244 934.0
53.343345513 900.0
53.360056782 919.0
53.376768051 936.0
53.393479320 872.0
53.410190589 894.0
53.426901857 901.0
53.443613126 832.0
53.460324395 809.0
53.477035664 845.0
53.493746933 804.0
53.510458202 777.0
53.527169471 856.0
53.543880740 857.0
53.560592009 815.0
53.577303278 824.0
53.594014547 809.0
53.610725816 757.0
53.627437085 751.0
53.644148354 789.0
53.660859623 807.0
53.677570892 804.0
53.694282161 771.0
53.710993430 753.0
53.727704699 750.0
53.744415968 749.0
53.761127237 769.0
53.777838506 753.0
53.794549775 779.0
53.811261044 775.0
53.827972313 798.0
53.844683582 734.0
53.861394851 701.0
53.878106120 740.0
53.894817389 764.0
53.911528658 779.0
53.928239927 734.0
53.944951196 762.0
53.961662465 799.0
53.978373734 733.0
53.995085003 761.0
54.011796272 772.0
54.028507541 720.0
54.045218810 785.0
54.061930079 753.0
54.078641348 779.0
54.095352617 795.0
54.112063886 783.0
54.128775155 770.0
54.145486424 710.0
54.162197692 772.0
54.178908961 810.0
54.195620230 784.0
54.212331499 820.0
54.229042768 771.0
54.245754037 804.0
54.262465306 806.0
54.279176575 826.0
54.295887844 808.0
54.312599113 781.0
54.329310382 764.0
54.346021651 791.0
54.362732920 852.0
54.379444189 829.0
54.396155458 843.0
54.412866727 807.0
54.429577996 794.0
54.446289265 785.0
54.463000534 790.0
54.479711803 769.0
54.496423072 772.0
54.513134341 821.0
54.529845610 754.0
54.546556879 798.0
54.563268148 848.0
54.579979417 774.0
54.596690686 759.0
54.613401955 783.0
54.630113224 762.0
54.646824493 769.0
54.663535762 734.0
54.680247031 757.0
54.696958300 787.0
54.713669569 794.0
54.730380838 736.0
54.747092107 821.0
54.763803376 780.0
54.780514645 777.0
54.797225914 759.0
54.813937183 737.0
54.830648452 794.0
54.847359721 783.0
54.864070990 806.0
54.880782259 800.0
54.897493527 859.0
54.914204796 805.0
54.930916065 829.0
54.947627334 951.0
54.964338603 1029.0
54.981049872 1055.0
54.997761141 1169.0
55.014472410 1228.0
55.031183679 1221.0
55.047894948 1203.0
55.064606217 1218.0
55.081317486 1363.0
55.098028755 1400.0
55.114740024 1441.0
55.131451293 1489.0
55.148162562 1602.0
55.164873831 1519.0
55.181585100 1454.0
55.198296369 1367.0
55.215007638 1277.0
55.231718907 1242.0
55.248430176 1221.0
55.265141445 1203.0
55.281852714 1180.0
55.298563983 1140.0
55.315275252 1077.0
55.331986521 979.0
55.348697790 957.0
55.365409059 957.0
55.382120328 943.0
55.398831597 940.0
55.415542866 901.0
55.432254135 848.0
55.448965404 831.0
55.465676673 863.0
55.482387942 855.0
55.499099211 930.0
55.515810480 878.0
55.532521749 872.0
55.549233018 811.0
55.565944287 950.0
55.582655556 902.0
55.599366825 918.0
55.616078094 829.0
55.632789362 846.0
55.649500631 902.0
55.666211900 863.0
55.682923169 943.0
55.699634438 878.0
55.716345707 915.0
55.733056976 807.0
55.749768245 853.0
55.766479514 831.0
55.783190783 846.0
55.799902052 861.0
55.816613321 781.0
55.833324590 805.0
55.850035859 754.0
55.866747128 730.0
55.883458397 798.0
55.900169666 826.0
55.916880935 771.0
55.933592204 744.0
55.950303473 830.0
55.967014742 772.0
55.983726011 787.0
56.000437280 733.0
56.017148549 770.0
56.033859818 724.0
56.050571087 749.0
56.067282356 750.0
56.083993625 776.0
56.100704894 733.0
56.117416163 749.0
56.134127432 724.0
56.150838701 755.0
56.167549970 754.0
56.184261239 789.0
56.200972508 741.0
56.217683777 756.0
56.234395046 755.0
56.251106315 765.0
56.267817584 795.0
56.284528853 766.0
56.301240122 769.0
56.317951391 789.0
56.334662660 791.0
56.351373929 806.0
56.368085198 808.0
56.384796466 770.0
56.401507735 792.0
56.418219004 801.0
56.434930273 711.0
56.451641542 738.0
56.468352811 777.0
56.485064080 746.0
56.501775349 774.0
56.518486618 791.0
56.535197887 751.0
56.551909156 745.0
56.568620425 784.0
56.585331694 787.0
56.602042963 783.0
56.618754232 806.0
56.635465501 733.0
56.652176770 779.0
56.668888039 768.0
56.685599308 763.0
56.702310577 815.0
56.719021846 795.0
56.735733115 779.0
56.752444384 762.0
56.769155653 843.0
56.785866922 817.0
56.802578191 793.0
56.819289460 855.0
56.836000729 816.0
56.852711998 843.0
56.869423267 824.0
56.886134536 777.0
56.902845805 772.0
56.919557074 796.0
56.936268343 777.0
56.952979612 774.0
56.969690881 744.0
56.986402150 705.0
57.003113419 767.0
57.019824688 781.0
57.036535957 832.0
57.053247226 737.0
57.069958495 736.0
57.086669764 723.0
57.103381033 804.0
57.120092301 756.0
57.136803570 770.0
57.153514839 808.0
57.170226108 766.0
57.186937377 771.0
57.203648646 782.0
57.220359915 782.0
57.237071184 730.0
57.253782453 820.0
57.270493722 825.0
57.287204991 789.0
57.303916260 804.0
57.320627529 746.0
57.337338798 777.0
57.354050067 808.0
57.370761336 786.0
57.387472605 818.0
57.404183874 777.0
57.420895143 736.0
57.437606412 842.0
57.454317681 808.0
57.471028950 769.0
57.487740219 771.0
57.504451488 776.0
57.521162757 772.0
57.537874026 821.0
57.554585295 819.0
57.571296564 791.0
57.588007833 768.0
57.604719102 794.0
57.621430371 810.0
57.638141640 829.0
57.654852909 748.0
57.671564178 789.0
57.688275447 795.0
57.704986716 805.0
57.721697985 788.0
57.738409254 775.0
57.755120523 820.0
57.771831792 915.0
57.788543061 872.0
57.805254330 802.0
57.821965599 899.0
57.838676868 836.0
57.855388136 969.0
57.872099405 914.0
57.888810674 968.0
57.905521943 942.0
57.922233212 971.0
57.938944481 1012.0
57.955655750 1047.0
57.972367019 1033.0
57.989078288 1039.0
58.005789557 1150.0
58.022500826 1275.0
58.039212095 1401.0
58.055923364 1521.0
58.072634633 1828.0
58.089345902 1978.0
58.106057171 2401.0
58.122768440 3078.0
58.139479709 3995.0
58.156190978 4666.0
58.172902247 5395.0
58.189613516 5526.0
58.206324785 5581.0
58.223036054 5085.0
58.239747323 4849.0
58.256458592 4472.0
58.273169861 4203.0
58.289881130 4104.0
58.306592399 4141.0
58.323303668 4256.0
58.340014937 4104.0
58.356726206 3972.0
58.373437475 3761.0
58.390148744 3319.0
58.406860013 3002.0
58.423571282 2696.0
58.440282551 2549.0
58.456993820 2184.0
58.473705089 2039.0
58.490416358 2005.0
58.507127627 1885.0
58.523838896 1975.0
58.540550165 2075.0
58.557261434 2081.0
58.573972703 2177.0
58.590683971 2313.0
58.607395240 2268.0
58.624106509 2482.0
58.640817778 2341.0
58.657529047 2308.0
58.674240316 2213.0
58.690951585 2163.0
58.707662854 2249.0
58.724374123 2166.0
58.741085392 2078.0
58.757796661 1981.0
58.774507930 1982.0
58.791219199 1734.0
58.807930468 1686.0
58.824641737 1499.0
58.841353006 1447.0
58.858064275 1457.0
58.874775544 1379.0
58.891486813 1278.0
58.908198082 1237.0
58.924909351 1088.0
58.941620620 1115.0
58.958331889 1105.0
58.975043158 1075.0
58.991754427 1000.0
59.008465696 938.0
59.025176965 980.0
59.041888234 1035.0
59.058599503 934.0
59.075310772 910.0
59.092022041 882.0
59.108733310 869.0
59.125444579 846.0
59.142155848 888.0
59.158867117 863.0
59.175578386 840.0
59.192289655 865.0
59.209000924 870.0
59.225712193 858.0
59.242423462 883.0
59.259134731 883.0
59.275846000 883.0
59.292557269 842.0
59.309268538 827.0
59.325979806 769.0
59.342691075 788.0
59.359402344 799.0
59.376113613 774.0
59.392824882 765.0
59.409536151 809.0
59.426247420 790.0
59.442958689 733.0
59.459669958 756.0
59.476381227 763.0
59.493092496 716.0
59.509803765 711.0
59.526515034 739.0
59.543226303 795.0
59.559937572 724.0
59.576648841 734.0
59.593360110 727.0
59.610071379 764.0
59.626782648 745.0
59.643493917 761.0
59.660205186 740.0
59.676916455 712.0
59.693627724 716.0
59.710338993 706.0
59.727050262 737.0
59.743761531 793.0
59.760472800 748.0
59.777184069 757.0
59.793895338 759.0
59.810606607 756.0
59.827317876 766.0
59.844029145 739.0
59.860740414 737.0
59.877451683 735.0
59.894162952 770.0
59.910874221 763.0
59.927585490 749.0
59.944296759 745.0
59.961008028 808.0
59.977719297 844.0
59.994430566 815.0
60.011141835 765.0
60.027853104 718.0
60.044564373 765.0
60.061275642 718.0
60.077986910 733.0
60.094698179 787.0
60.111409448 814.0
60.128120717 739.0
60.144831986 740.0
60.161543255 780.0
60.178254524 785.0
60.194965793 757.0
60.211677062 739.0
60.228388331 726.0
60.245099600 726.0
60.261810869 751.0
60.278522138 732.0
60.295233407 786.0
60.311944676 797.0
60.328655945 797.0
60.345367214 881.0
60.362078483 792.0
60.378789752 800.0
60.395501021 865.0
60.412212290 857.0
60.428923559 836.0
60.445634828 880.0
60.462346097 891.0
60.479057366 870.0
60.495768635 899.0
60.512479904 913.0
60.529191173 937.0
60.545902442 924.0
60.562613711 864.0
60.579324980 910.0
60.596036249 889.0
60.612747518 934.0
60.629458787 878.0
60.646170056 889.0
60.662881325 941.0
60.679592594 867.0
60.696303863 955.0
60.713015132 855.0
60.729726401 844.0
60.746437670 892.0
60.763148939 853.0
60.779860208 831.0
60.796571477 810.0
60.813282745 836.0
60.829994014 785.0
60.846705283 800.0
60.863416552 826.0
60.880127821 747.0
60.896839090 738.0
60.913550359 775.0
60.930261628 777.0
60.946972897 756.0
60.963684166 751.0
60.980395435 779.0
60.997106704 746.0
61.013817973 778.0
61.030529242 824.0
61.047240511 774.0
61.063951780 760.0
61.080663049 753.0
61.097374318 767.0
61.114085587 726.0
61.130796856 766.0
61.147508125 756.0
61.164219394 791.0
61.180930663 701.0
61.197641932 795.0
61.214353201 747.0
61.231064470 798.0
61.247775739 777.0
61.264487008 805.0
61.281198277 706.0
61.297909546 811.0
61.314620815 786.0
61.331332084 769.0
61.348043353 809.0
61.364754622 782.0
61.381465891 864.0
61.398177160 823.0
61.414888429 874.0
61.431599698 843.0
61.448310967 818.0
61.465022236 843.0
61.481733505 834.0
61.498444774 807.0
61.515156043 818.0
61.531867312 840.0
61.548578580 864.0
61.565289849 883.0
61.582001118 843.0
61.598712387 832.0
61.615423656 850.0
61.632134925 834.0
61.648846194 844.0
61.665557463 795.0
61.682268732 768.0
61.698980001 770.0
61.715691270 738.0
61.732402539 841.0
61.749113808 810.0
61.765825077 781.0
61.782536346 746.0
61.799247615 745.0
61.815958884 765.0
61.832670153 768.0
61.849381422 828.0
61.866092691 867.0
61.882803960 843.0
61.899515229 877.0
61.916226498 836.0
61.932937767 849.0
61.949649036 846.0
61.966360305 887.0
61.983071574 915.0
61.999782843 919.0
62.016494112 1017.0
62.033205381 1111.0
62.049916650 1142.0
62.066627919 1129.0
62.083339188 1125.0
62.100050457 1090.0
62.116761726 1167.0
62.133472995 1080.0
62.150184264 1076.0
62.166895533 1113.0
62.183606802 1130.0
62.200318071 1204.0
62.217029340 1147.0
62.233740609 1140.0
62.250451878 1162.0
62.267163147 1088.0
62.283874415 1114.0
62.300585684 1005.0
62.317296953 1031.0
62.334008222 948.0
62.350719491 981.0
62.367430760 1015.0
62.384142029 964.0
62.400853298 968.0
62.417564567 965.0
62.434275836 955.0
62.450987105 948.0
62.467698374 932.0
62.484409643 1048.0
62.501120912 955.0
62.517832181 966.0
62.534543450 968.0
62.551254719 981.0
62.567965988 929.0
62.584677257 988.0
62.601388526 1028.0
62.618099795 1146.0
62.634811064 1211.0
62.651522333 1190.0
62.668233602 1198.0
62.684944871 1212.0
62.701656140 1201.0
62.718367409 1143.0
62.735078678 1039.0
62.751789947 1044.0
62.768501216 1090.0
62.785212485 1032.0
62.801923754 1056.0
62.818635023 1029.0
62.835346292 985.0
62.852057561 1016.0
62.868768830 992.0
62.885480099 927.0
62.902191368 923.0
62.918902637 868.0
62.935613906 904.0
62.952325175 825.0
62.969036444 797.0
62.985747713 862.0
63.002458982 788.0
63.019170251 813.0
63.035881519 760.0
63.052592788 788.0
63.069304057 749.0
63.086015326 756.0
63.102726595 786.0
63.119437864 777.0
63.136149133 773.0
63.152860402 853.0
63.169571671 809.0
63.186282940 831.0
63.202994209 805.0
63.219705478 784.0
63.236416747 776.0
63.253128016 731.0
63.269839285 724.0
63.286550554 781.0
63.303261823 745.0
63.319973092 746.0
63.336684361 748.0
63.353395630 696.0
63.370106899 788.0
63.386818168 701.0
63.403529437 701.0
63.420240706 707.0
63.436951975 812.0
63.453663244 726.0
63.470374513 735.0
63.487085782 715.0
63.503797051 736.0
63.520508320 722.0
63.537219589 742.0
63.553930858 792.0
63.570642127 761.0
63.587353396 674.0
63.604064665 677.0
63.620775934 762.0
63.637487203 728.0
63.654198472 741.0
63.670909741 746.0
63.687621010 756.0
63.704332279 735.0
63.721043548 747.0
63.737754817 741.0
63.754466086 701.0
63.771177354 750.0
63.787888623 763.0
63.804599892 769.0
63.821311161 776.0
63.838022430 741.0
63.854733699 789.0
63.871444968 791.0
63.888156237 783.0
63.904867506 785.0
63.921578775 777.0
63.938290044 725.0
63.955001313 758.0
63.971712582 750.0
63.988423851 723.0
64.005135120 762.0
64.021846389 710.0
64.038557658 742.0
64.055268927 745.0
64.071980196 784.0
64.088691465 708.0
64.105402734 791.0
64.122114003 752.0
64.138825272 735.0
64.155536541 727.0
64.172247810 774.0
64.188959079 704.0
64.205670348 727.0
64.222381617 719.0
64.239092886 710.0
64.255804155 755.0
64.272515424 718.0
64.289226693 724.0
64.305937962 665.0
64.322649231 658.0
64.339360500 691.0
64.356071769 744.0
64.372783038 739.0
64.389494307 735.0
64.406205576 733.0
64.422916845 673.0
64.439628114 704.0
64.456339383 685.0
64.473050652 723.0
64.489761921 691.0
64.506473189 705.0
64.523184458 743.0
64.539895727 727.0
64.556606996 801.0
64.573318265 698.0
64.590029534 732.0
64.606740803 704.0
64.623452072 756.0
64.640163341 698.0
64.656874610 713.0
64.673585879 762.0
64.690297148 713.0
64.707008417 697.0
64.723719686 704.0
64.740430955 753.0
64.757142224 743.0
64.773853493 825.0
64.790564762 773.0
64.807276031 732.0
64.823987300 761.0
64.840698569 758.0
64.857409838 794.0
64.874121107 746.0
64.890832376 760.0
64.907543645 752.0
64.924254914 735.0
64.940966183 739.0
64.957677452 756.0
64.974388721 751.0
64.991099990 752.0
65.007811259 709.0
65.024522528 692.0
65.041233797 771.0
65.057945066 740.0
65.074656335 723.0
65.091367604 713.0
65.108078873 710.0
65.124790142 777.0
65.141501411 763.0
65.158212680 726.0
65.174923949 782.0
65.191635218 754.0
65.208346487 756.0
65.225057756 724.0
65.241769024 702.0
65.258480293 767.0
65.275191562 722.0
65.291902831 723.0
65.308614100 763.0
65.325325369 781.0
65.342036638 718.0
65.358747907 754.0
65.375459176 707.0
65.392170445 753.0
65.408881714 763.0
65.425592983 734.0
65.442304252 766.0
65.459015521 745.0
65.475726790 790.0
65.492438059 797.0
65.509149328 858.0
65.525860597 858.0
65.542571866 970.0
65.559283135 1003.0
65.575994404 950.0
65.592705673 987.0
65.609416942 985.0
65.626128211 973.0
65.642839480 961.0
65.659550749 960.0
65.676262018 959.0
65.692973287 939.0
65.709684556 933.0
65.726395825 937.0
65.743107094 931.0
65.759818363 915.0
65.776529632 863.0
65.793240901 861.0
65.809952170 900.0
65.826663439 844.0
65.843374708 866.0
65.860085977 821.0
65.876797246 829.0
65.893508515 822.0
65.910219784 819.0
65.926931053 862.0
65.943642322 860.0
65.960353591 854.0
65.977064859 879.0
65.993776128 815.0
66.010487397 764.0
66.027198666 759.0
66.043909935 771.0
66.060621204 759.0
66.077332473 816.0
66.094043742 755.0
66.110755011 731.0
66.127466280 800.0
66.144177549 795.0
66.160888818 824.0
66.177600087 801.0
66.194311356 743.0
66.211022625 768.0
66.227733894 779.0
66.244445163 774.0
66.261156432 782.0
66.277867701 777.0
66.294578970 719.0
66.311290239 770.0
66.328001508 756.0
66.344712777 726.0
66.361424046 774.0
66.378135315 749.0
66.394846584 726.0
66.411557853 768.0
66.428269122 762.0
66.444980391 759.0
66.461691660 763.0
66.478402929 727.0
66.495114198 817.0
66.511825467 746.0
66.528536736 742.0
66.545248005 758.0
66.561959274 766.0
66.578670543 739.0
66.595381812 772.0
66.612093081 732.0
66.628804350 720.0
66.645515619 782.0
66.662226888 775.0
66.678938157 801.0
66.695649426 752.0
66.712360695 728.0
66.729071963 750.0
66.745783232 773.0
66.762494501 776.0
66.779205770 733.0
66.795917039 695.0
66.812628308 685.0
66.829339577 740.0
66.846050846 739.0
66.862762115 696.0
66.879473384 711.0
66.896184653 757.0
66.912895922 751.0
66.929607191 754.0
66.946318460 721.0
66.963029729 733.0
66.979740998 763.0
66.996452267 707.0
67.013163536 772.0
67.029874805 779.0
67.046586074 715.0
67.063297343 696.0
67.080008612 779.0
67.096719881 766.0
67.113431150 758.0
67.130142419 797.0
67.146853688 798.0
67.163564957 770.0
67.180276226 821.0
67.196987495 759.0
67.213698764 767.0
67.230410033 743.0
67.247121302 790.0
67.263832571 778.0
67.280543840 704.0
67.297255109 759.0
67.313966378 765.0
67.330677647 760.0
67.347388916 799.0
67.364100185 747.0
67.380811454 827.0
67.397522723 754.0
67.414233992 760.0
67.430945261 808.0
67.447656530 745.0
67.464367798 808.0
67.481079067 796.0
67.497790336 810.0
67.514501605 759.0
67.531212874 775.0
67.547924143 753.0
67.564635412 799.0
67.581346681 755.0
67.598057950 816.0
67.614769219 801.0
67.631480488 747.0
67.648191757 800.0
67.664903026 792.0
67.681614295 785.0
67.698325564 806.0
67.715036833 784.0
67.731748102 744.0
67.748459371 735.0
67.765170640 779.0
67.781881909 774.0
67.798593178 784.0
67.815304447 830.0
67.832015716 846.0
67.848726985 801.0
67.865438254 825.0
67.882149523 794.0
67.898860792 846.0
67.915572061 832.0
67.932283330 854.0
67.948994599 860.0
67.965705868 915.0
67.982417137 823.0
67.999128406 919.0
68.015839675 898.0
68.032550944 952.0
68.049262213 982.0
68.065973482 1100.0
68.082684751 1135.0
68.099396020 1329.0
68.116107289 1301.0
68.132818558 1403.0
68.149529827 1378.0
68.166241096 1342.0
68.182952365 1323.0
68.199663633 1287.0
68.216374902 1366.0
68.233086171 1223.0
68.249797440 1266.0
68.266508709 1237.0
68.283219978 1302.0
68.299931247 1342.0
68.316642516 1225.0
68.333353785 1256.0
68.350065054 1252.0
68.366776323 1240.0
68.383487592 1266.0
68.400198861 1149.0
68.416910130 1158.0
68.433621399 1124.0
68.450332668 1139.0
68.467043937 1120.0
68.483755206 1126.0
68.500466475 1132.0
68.517177744 1217.0
68.533889013 1276.0
68.550600282 1415.0
68.567311551 1555.0
68.584022820 1754.0
68.600734089 1943.0
68.617445358 2088.0
68.634156627 2088.0
68.650867896 2182.0
68.667579165 2290.0
68.684290434 2229.0
68.701001703 2346.0
68.717712972 2323.0
68.734424241 2404.0
68.751135510 2506.0
68.767846779 2520.0
68.784558048 2454.0
68.801269317 2476.0
68.817980586 2492.0
68.834691855 2322.0
68.851403124 2263.0
68.868114393 2161.0
68.884825662 2018.0
68.901536931 1953.0
68.918248200 1953.0
68.934959468 1971.0
68.951670737 1934.0
68.968382006 1782.0
68.985093275 1666.0
69.001804544 1534.0
69.018515813 1491.0
69.035227082 1334.0
69.051938351 1288.0
69.068649620 1240.0
69.085360889 1154.0
69.102072158 1086.0
69.118783427 1030.0
69.135494696 960.0
69.152205965 938.0
69.168917234 929.0
69.185628503 903.0
69.202339772 898.0
69.219051041 892.0
69.235762310 892.0
69.252473579 923.0
69.269184848 834.0
69.285896117 783.0
69.302607386 833.0
69.319318655 795.0
69.336029924 741.0
69.352741193 848.0
69.369452462 815.0
69.386163731 778.0
69.402875000 787.0
69.419586269 844.0
69.436297538 757.0
69.453008807 750.0
69.469720076 716.0
69.486431345 775.0
69.503142614 762.0
69.519853883 782.0
69.536565152 813.0
69.553276421 729.0
69.569987690 759.0
69.586698959 766.0
69.603410228 757.0
69.620121497 741.0
69.636832766 733.0
69.653544035 736.0
69.670255304 747.0
69.686966572 750.0
69.703677841 745.0
69.720389110 760.0
69.737100379 753.0
69.753811648 708.0
69.770522917 742.0
69.787234186 756.0
69.803945455 727.0
69.820656724 730.0
69.837367993 710.0
69.854079262 735.0
69.870790531 752.0
69.887501800 756.0
69.904213069 740.0
69.920924338 733.0
69.937635607 756.0
69.954346876 723.0
69.971058145 711.0
69.987769414 764.0
70.004480683 715.0
70.021191952 729.0
70.037903221 805.0
70.054614490 832.0
70.071325759 760.0
70.088037028 720.0
70.104748297 716.0
70.121459566 697.0
70.138170835 734.0
70.154882104 697.0
70.171593373 797.0
70.188304642 757.0
70.205015911 737.0
70.221727180 729.0
70.238438449 748.0
70.255149718 690.0
70.271860987 734.0
70.288572256 748.0
70.305283525 755.0
70.321994794 755.0
70.338706063 809.0
70.355417332 684.0
70.372128601 736.0
70.388839870 774.0
70.405551139 670.0
70.422262407 731.0
70.438973676 706.0
70.455684945 694.0
70.472396214 706.0
70.489107483 682.0
70.505818752 731.0
70.522530021 759.0
70.539241290 770.0
70.555952559 657.0
70.572663828 735.0
70.589375097 805.0
70.606086366 740.0
70.622797635 742.0
70.639508904 725.0
70.656220173 750.0
70.672931442 742.0
70.689642711 681.0
70.706353980 743.0
70.723065249 768.0
70.739776518 680.0
70.756487787 700.0
70.773199056 766.0
70.789910325 721.0
70.806621594 717.0
70.823332863 735.0
70.840044132 742.0
70.856755401 747.0
70.873466670 721.0
70.890177939 707.0
70.906889208 784.0
70.923600477 746.0
70.940311746 713.0
70.957023015 736.0
70.973734284 736.0
70.990445553 778.0
71.007156822 720.0
71.023868091 749.0
71.040579360 773.0
71.057290629 764.0
71.074001898 701.0
71.090713167 769.0
71.107424436 670.0
71.124135705 743.0
71.140846974 704.0
71.157558242 750.0
71.174269511 765.0
71.190980780 702.0
71.207692049 750.0
71.224403318 703.0
71.241114587 671.0
71.257825856 684.0
71.274537125 706.0
71.291248394 716.0
71.307959663 681.0
71.324670932 731.0
71.341382201 696.0
71.358093470 717.0
71.374804739 712.0
71.391516008 742.0
71.408227277 713.0
71.424938546 705.0
71.441649815 737.0
71.458361084 675.0
71.475072353 703.0
71.491783622 783.0
71.508494891 799.0
71.525206160 727.0
71.541917429 748.0
71.558628698 689.0
71.575339967 740.0
71.592051236 744.0
71.608762505 719.0
71.625473774 740.0
71.642185043 758.0
71.658896312 693.0
71.675607581 744.0
71.692318850 734.0
71.709030119 707.0
71.725741388 690.0
71.742452657 720.0
71.759163926 759.0
71.775875195 737.0
71.792586464 747.0
71.809297733 765.0
71.826009002 731.0
71.842720271 754.0
71.859431540 750.0
71.876142809 782.0
71.892854077 705.0
71.909565346 748.0
71.926276615 734.0
71.942987884 763.0
71.959699153 752.0
71.976410422 752.0
71.993121691 753.0
72.009832960 762.0
72.026544229 798.0
72.043255498 767.0
72.059966767 772.0
72.076678036 805.0
72.093389305 700.0
72.110100574 785.0
72.126811843 725.0
72.143523112 689.0
72.160234381 710.0
72.176945650 697.0
72.193656919 757.0
72.210368188 772.0
72.227079457 742.0
72.243790726 779.0
72.260501995 736.0
72.277213264 712.0
72.293924533 728.0
72.310635802 728.0
72.327347071 740.0
72.344058340 751.0
72.360769609 746.0
72.377480878 776.0
72.394192147 749.0
72.410903416 745.0
72.427614685 721.0
72.444325954 732.0
72.461037223 754.0
72.477748492 766.0
72.494459761 699.0
72.511171030 741.0
72.527882299 704.0
72.544593568 714.0
72.561304837 767.0
72.578016106 699.0
72.594727375 690.0
72.611438644 725.0
72.628149912 712.0
72.644861181 754.0
72.661572450 725.0
72.678283719 777.0
72.694994988 736.0
72.711706257 729.0
72.728417526 706.0
72.745128795 699.0
72.761840064 762.0
72.778551333 748.0
72.795262602 728.0
72.811973871 796.0
72.828685140 808.0
72.845396409 820.0
72.862107678 821.0
72.878818947 852.0
72.895530216 846.0
72.912241485 771.0
72.928952754 853.0
72.945664023 863.0
72.962375292 878.0
72.979086561 851.0
72.995797830 892.0
73.012509099 920.0
73.029220368 922.0
73.045931637 893.0
73.062642906 966.0
73.079354175 931.0
73.096065444 923.0
73.112776713 965.0
73.129487982 934.0
73.146199251 862.0
73.162910520 886.0
73.179621789 867.0
73.196333058 908.0
73.213044327 876.0
73.229755596 873.0
73.246466865 806.0
73.263178134 893.0
73.279889403 863.0
73.296600672 842.0
73.313311941 841.0
73.330023210 932.0
73.346734479 898.0
73.363445748 872.0
73.380157016 896.0
73.396868285 931.0
73.413579554 943.0
73.430290823 836.0
73.447002092 834.0
73.463713361 925.0
73.480424630 972.0
73.497135899 943.0
73.513847168 953.0
73.530558437 895.0
73.547269706 939.0
73.563980975 909.0
73.580692244 900.0
73.597403513 915.0
73.614114782 942.0
73.630826051 827.0
73.647537320 850.0
73.664248589 889.0
73.680959858 865.0
73.697671127 839.0
73.714382396 802.0
73.731093665 835.0
73.747804934 842.0
73.764516203 840.0
73.781227472 821.0
73.797938741 825.0
73.814650010 779.0
73.831361279 779.0
73.848072548 801.0
73.864783817 770.0
73.881495086 733.0
73.898206355 714.0
73.914917624 732.0
73.931628893 725.0
73.948340162 691.0
73.965051431 758.0
73.981762700 755.0
73.998473969 773.0
74.015185238 731.0
74.031896507 727.0
74.048607776 755.0
74.065319045 691.0
74.082030314 759.0
74.098741583 797.0
74.115452851 718.0
74.132164120 711.0
74.148875389 698.0
74.165586658 698.0
74.182297927 722.0
74.199009196 788.0
74.215720465 751.0
74.232431734 751.0
74.249143003 773.0
74.265854272 725.0
74.282565541 754.0
74.299276810 707.0
74.315988079 768.0
74.332699348 699.0
74.349410617 747.0
74.366121886 720.0
74.382833155 737.0
74.399544424 737.0
74.416255693 700.0
74.432966962 691.0
74.449678231 764.0
74.466389500 735.0
74.483100769 714.0
74.499812038 733.0
74.516523307 720.0
74.533234576 679.0
74.549945845 728.0
74.566657114 685.0
74.583368383 728.0
74.600079652 737.0
74.616790921 709.0
74.633502190 758.0
74.650213459 735.0
74.666924728 728.0
74.683635997 731.0
74.700347266 733.0
74.717058535 707.0
74.733769804 754.0
74.750481073 669.0
74.767192342 729.0
74.783903611 696.0
74.800614880 698.0
74.817326149 743.0
74.834037418 760.0
74.850748686 747.0
74.867459955 729.0
74.884171224 775.0
74.900882493 749.0
74.917593762 821.0
74.934305031 812.0
74.951016300 902.0
74.967727569 833.0
74.984438838 845.0
75.001150107 868.0
75.017861376 832.0
75.034572645 830.0
75.051283914 782.0
75.067995183 744.0
75.084706452 823.0
75.101417721 799.0
75.118128990 839.0
75.134840259 847.0
75.151551528 812.0
75.168262797 823.0
75.184974066 848.0
75.201685335 820.0
75.218396604 848.0
75.235107873 838.0
75.251819142 766.0
75.268530411 735.0
75.285241680 780.0
75.301952949 773.0
75.318664218 788.0
75.335375487 745.0
75.352086756 723.0
75.368798025 756.0
75.385509294 781.0
75.402220563 761.0
75.418931832 813.0
75.435643101 803.0
75.452354370 795.0
75.469065639 744.0
75.485776908 843.0
75.502488177 864.0
75.519199446 779.0
75.535910715 838.0
75.552621984 854.0
75.569333253 875.0
75.586044521 840.0
75.602755790 875.0
75.619467059 846.0
75.636178328 803.0
75.652889597 774.0
75.669600866 764.0
75.686312135 739.0
75.703023404 779.0
75.719734673 806.0
75.736445942 738.0
75.753157211 798.0
75.769868480 807.0
75.786579749 772.0
75.803291018 820.0
75.820002287 745.0
75.836713556 757.0
75.853424825 740.0
75.870136094 715.0
75.886847363 722.0
75.903558632 754.0
75.920269901 735.0
75.936981170 788.0
75.953692439 735.0
75.970403708 758.0
75.987114977 724.0
76.003826246 714.0
76.020537515 771.0
76.037248784 707.0
76.053960053 724.0
76.070671322 736.0
76.087382591 749.0
76.104093860 723.0
76.120805129 705.0
76.137516398 759.0
76.154227667 706.0
76.170938936 703.0
76.187650205 701.0
76.204361474 724.0
76.221072743 698.0
76.237784012 661.0
76.254495281 677.0
76.271206550 719.0
76.287917819 704.0
76.304629088 762.0
76.321340356 717.0
76.338051625 727.0
76.354762894 719.0
76.371474163 722.0
76.388185432 766.0
76.404896701 759.0
76.421607970 774.0
76.438319239 733.0
76.455030508 730.0
76.471741777 713.0
76.488453046 670.0
76.505164315 750.0
76.521875584 730.0
76.538586853 700.0
76.555298122 704.0
76.572009391 719.0
76.588720660 703.0
76.605431929 678.0
76.622143198 714.0
76.638854467 702.0
76.655565736 667.0
76.672277005 739.0
76.688988274 729.0
76.705699543 725.0
76.722410812 719.0
76.739122081 764.0
76.755833350 700.0
76.772544619 746.0
76.789255888 738.0
76.805967157 712.0
76.822678426 715.0
76.839389695 677.0
76.856100964 723.0
76.872812233 732.0
76.889523502 700.0
76.906234771 700.0
76.922946040 695.0
76.939657309 689.0
76.956368578 720.0
76.973079847 730.0
76.989791116 740.0
77.006502385 707.0
77.023213654 777.0
77.039924923 682.0
77.056636192 683.0
77.073347460 805.0
77.090058729 724.0
77.106769998 688.0
77.123481267 713.0
77.140192536 740.0
77.156903805 747.0
77.173615074 778.0
77.190326343 704.0
77.207037612 760.0
77.223748881 696.0
77.240460150 749.0
77.257171419 799.0
77.273882688 756.0
77.290593957 810.0
77.307305226 806.0
77.324016495 800.0
77.340727764 798.0
77.357439033 809.0
77.374150302 800.0
77.390861571 836.0
77.407572840 869.0
77.424284109 853.0
77.440995378 863.0
77.457706647 1036.0
77.474417916 1053.0
77.491129185 1131.0
77.507840454 1284.0
77.524551723 1262.0
77.541262992 1271.0
77.557974261 1398.0
77.574685530 1391.0
77.591396799 1381.0
77.608108068 1376.0
77.624819337 1460.0
77.641530606 1469.0
77.658241875 1494.0
77.674953144 1546.0
77.691664413 1530.0
77.708375682 1611.0
77.725086951 1527.0
77.741798220 1505.0
77.758509489 1547.0
77.775220758 1560.0
77.791932027 1489.0
77.808643295 1420.0
77.825354564 1350.0
77.842065833 1442.0
77.858777102 1340.0
77.875488371 1320.0
77.892199640 1351.0
77.908910909 1302.0
77.925622178 1282.0
77.942333447 1183.0
77.959044716 1210.0
77.975755985 1126.0
77.992467254 1107.0
78.009178523 1061.0
78.025889792 995.0
78.042601061 976.0
78.059312330 970.0
78.076023599 911.0
78.092734868 902.0
78.109446137 910.0
78.126157406 882.0
78.142868675 941.0
78.159579944 881.0
78.176291213 840.0
78.193002482 838.0
78.209713751 787.0
78.226425020 811.0
78.243136289 761.0
78.259847558 763.0
78.276558827 782.0
78.293270096 778.0
78.309981365 789.0
78.326692634 838.0
78.343403903 752.0
78.360115172 775.0
78.376826441 781.0
78.393537710 786.0
78.410248979 810.0
78.426960248 785.0
78.443671517 862.0
78.460382786 851.0
78.477094055 826.0
78.493805324 925.0
78.510516593 936.0
78.527227862 914.0
78.543939130 899.0
78.560650399 876.0
78.577361668 965.0
78.594072937 952.0
78.610784206 1017.0
78.627495475 970.0
78.644206744 956.0
78.660918013 1073.0
78.677629282 1081.0
78.694340551 1002.0
78.711051820 1072.0
78.727763089 1077.0
78.744474358 1117.0
78.761185627 1101.0
78.777896896 1079.0
78.794608165 1058.0
78.811319434 1035.0
78.828030703 1135.0
78.844741972 1094.0
78.861453241 1072.0
78.878164510 1093.0
78.894875779 1103.0
78.911587048 1087.0
78.928298317 1044.0
78.945009586 1063.0
78.961720855 1100.0
78.978432124 1051.0
78.995143393 1008.0
79.011854662 1018.0
79.028565931 932.0
79.045277200 923.0
79.061988469 924.0
79.078699738 936.0
79.095411007 881.0
79.112122276 926.0
79.128833545 885.0
79.145544814 869.0
79.162256083 868.0
79.178967352 787.0
79.195678621 827.0
79.212389890 845.0
79.229101159 806.0
79.245812428 866.0
79.262523697 812.0
79.279234965 821.0
79.295946234 782.0
79.312657503 755.0
79.329368772 786.0
79.346080041 809.0
79.362791310 804.0
79.379502579 770.0
79.396213848 790.0
79.412925117 784.0
79.429636386 773.0
79.446347655 755.0
79.463058924 767.0
79.479770193 739.0
79.496481462 785.0
79.513192731 750.0
79.529904000 729.0
79.546615269 788.0
79.563326538 791.0
79.580037807 759.0
79.596749076 804.0
79.613460345 763.0
79.630171614 790.0
79.646882883 743.0
79.663594152 751.0
79.680305421 760.0
79.697016690 702.0
79.713727959 816.0
79.730439228 762.0
79.747150497 823.0
79.763861766 797.0
79.780573035 790.0
79.797284304 818.0
79.813995573 752.0
79.830706842 752.0
79.847418111 773.0
79.864129380 718.0
79.880840649 748.0
79.897551918 690.0
79.914263187 740.0
79.930974456 762.0
79.947685725 748.0
79.964396994 743.0
79.981108263 767.0
79.997819532 753.0
80.014530801 739.0
80.031242069 805.0
80.047953338 758.0
80.064664607 735.0
80.081375876 753.0
80.098087145 766.0
80.114798414 729.0
80.131509683 789.0
80.148220952 756.0
80.164932221 817.0
80.181643490 805.0
80.198354759 779.0
80.215066028 821.0
80.231777297 797.0
80.248488566 706.0
80.265199835 707.0
80.281911104 723.0
80.298622373 704.0
80.315333642 754.0
80.332044911 723.0
80.348756180 742.0
80.365467449 755.0
80.382178718 773.0
80.398889987 753.0
80.415601256 768.0
80.432312525 775.0
80.449023794 771.0
80.465735063 782.0
80.482446332 824.0
80.499157601 788.0
80.515868870 788.0
80.532580139 751.0
80.549291408 759.0
80.566002677 751.0
80.582713946 726.0
80.599425215 732.0
80.616136484 751.0
80.632847753 767.0
80.649559022 691.0
80.666270291 702.0
80.682981560 700.0
80.699692829 680.0
80.716404098 740.0
80.733115367 760.0
80.749826636 763.0
80.766537904 754.0
80.783249173 739.0
80.799960442 708.0
80.816671711 670.0
80.833382980 737.0
80.850094249 728.0
80.866805518 659.0
80.883516787 729.0
80.900228056 738.0
80.916939325 734.0
80.933650594 750.0
80.950361863 728.0
80.967073132 740.0
80.983784401 671.0
81.000495670 692.0
81.017206939 714.0
81.033918208 762.0
81.050629477 717.0
81.067340746 737.0
81.084052015 751.0
81.100763284 746.0
81.117474553 729.0
81.134185822 753.0
81.150897091 753.0
81.167608360 769.0
81.184319629 743.0
81.201030898 734.0
81.217742167 692.0
81.234453436 706.0
81.251164705 741.0
81.267875974 735.0
81.284587243 777.0
81.301298512 733.0
81.318009781 768.0
81.334721050 711.0
81.351432319 791.0
81.368143588 757.0
81.384854857 716.0
81.401566126 704.0
81.418277395 681.0
81.434988664 725.0
81.451699933 705.0
81.468411202 737.0
81.485122471 718.0
81.501833739 701.0
81.518545008 694.0
81.535256277 792.0
81.551967546 799.0
81.568678815 763.0
81.585390084 771.0
81.602101353 850.0
81.618812622 873.0
81.635523891 861.0
81.652235160 864.0
81.668946429 928.0
81.685657698 873.0
81.702368967 873.0
81.719080236 812.0
81.735791505 836.0
81.752502774 835.0
81.769214043 823.0
81.785925312 792.0
81.802636581 759.0
81.819347850 819.0
81.836059119 846.0
81.852770388 800.0
81.869481657 773.0
81.886192926 850.0
81.902904195 819.0
81.919615464 827.0
81.936326733 792.0
81.953038002 827.0
81.969749271 747.0
81.986460540 816.0
82.003171809 770.0
82.019883078 783.0
82.036594347 757.0
82.053305616 766.0
82.070016885 743.0
82.086728154 761.0
82.103439423 753.0
82.120150692 822.0
82.136861961 773.0
82.153573230 816.0
82.170284499 811.0
82.186995768 791.0
82.203707037 931.0
82.220418306 996.0
82.237129574 931.0
82.253840843 920.0
82.270552112 950.0
82.287263381 892.0
82.303974650 913.0
82.320685919 861.0
82.337397188 887.0
82.354108457 867.0
82.370819726 816.0
82.387530995 816.0
82.404242264 847.0
82.420953533 818.0
82.437664802 885.0
82.454376071 857.0
82.471087340 861.0
82.487798609 896.0
82.504509878 923.0
82.521221147 868.0
82.537932416 902.0
82.554643685 846.0
82.571354954 899.0
82.588066223 818.0
82.604777492 876.0
82.621488761 835.0
82.638200030 867.0
82.654911299 762.0
82.671622568 900.0
82.688333837 836.0
82.705045106 820.0
82.721756375 818.0
82.738467644 807.0
82.755178913 830.0
82.771890182 798.0
82.788601451 817.0
82.805312720 837.0
82.822023989 808.0
82.838735258 807.0
82.855446527 807.0
82.872157796 840.0
82.888869065 816.0
82.905580334 782.0
82.922291603 803.0
82.939002872 768.0
82.955714141 692.0
82.972425409 759.0
82.989136678 714.0
83.005847947 776.0
83.022559216 779.0
83.039270485 759.0
83.055981754 770.0
83.072693023 795.0
83.089404292 755.0
83.106115561 781.0
83.122826830 788.0
83.139538099 753.0
83.156249368 763.0
83.172960637 779.0
83.189671906 785.0
83.206383175 785.0
83.223094444 774.0
83.239805713 762.0
83.256516982 741.0
83.273228251 748.0
83.289939520 762.0
83.306650789 779.0
83.323362058 827.0
83.340073327 741.0
83.356784596 744.0
83.373495865 738.0
83.390207134 742.0
83.406918403 754.0
83.423629672 791.0
83.440340941 808.0
83.457052210 785.0
83.473763479 782.0
83.490474748 736.0
83.507186017 761.0
83.523897286 729.0
83.540608555 760.0
83.557319824 761.0
83.574031093 787.0
83.590742362 749.0
83.607453631 767.0
83.624164900 701.0
83.640876169 754.0
83.657587438 700.0
83.674298707 741.0
83.691009976 724.0
83.707721245 768.0
83.724432513 671.0
83.741143782 701.0
83.757855051 696.0
83.774566320 705.0
83.791277589 717.0
83.807988858 715.0
83.824700127 700.0
83.841411396 727.0
83.858122665 712.0
83.874833934 693.0
83.891545203 660.0
83.908256472 688.0
83.924967741 765.0
83.941679010 677.0
83.958390279 663.0
83.975101548 697.0
83.991812817 668.0
84.008524086 696.0
84.025235355 700.0
84.041946624 674.0
84.058657893 688.0
84.075369162 671.0
84.092080431 649.0
84.108791700 686.0
84.125502969 707.0
84.142214238 670.0
84.158925507 687.0
84.175636776 695.0
84.192348045 703.0
84.209059314 707.0
84.225770583 710.0
84.242481852 725.0
84.259193121 635.0
84.275904390 713.0
84.292615659 667.0
84.309326928 734.0
84.326038197 687.0
84.342749466 702.0
84.359460735 681.0
84.376172004 696.0
84.392883273 686.0
84.409594542 741.0
84.426305811 692.0
84.443017080 691.0
84.459728348 676.0
84.476439617 652.0
84.493150886 711.0
84.509862155 699.0
84.526573424 692.0
84.543284693 667.0
84.559995962 728.0
84.576707231 721.0
84.593418500 663.0
84.610129769 719.0
84.626841038 698.0
84.643552307 733.0
84.660263576 693.0
84.676974845 708.0
84.693686114 725.0
84.710397383 675.0
84.727108652 702.0
84.743819921 697.0
84.760531190 716.0
84.777242459 655.0
84.793953728 678.0
84.810664997 671.0
84.827376266 690.0
84.844087535 668.0
84.860798804 721.0
84.877510073 665.0
84.894221342 726.0
84.910932611 610.0
84.927643880 687.0
84.944355149 689.0
84.961066418 671.0
84.977777687 680.0
84.994488956 648.0
85.011200225 708.0
85.027911494 756.0
85.044622763 685.0
85.061334032 658.0
85.078045301 675.0
85.094756570 714.0
85.111467839 726.0
85.128179108 725.0
85.144890377 681.0
85.161601646 708.0
85.178312915 660.0
85.195024183 638.0
85.211735452 725.0
85.228446721 682.0
85.245157990 687.0
85.261869259 761.0
85.278580528 718.0
85.295291797 726.0
85.312003066 710.0
85.328714335 692.0
85.345425604 670.0
85.362136873 686.0
85.378848142 745.0
85.395559411 728.0
85.412270680 713.0
85.428981949 660.0
85.445693218 673.0
85.462404487 686.0
85.479115756 675.0
85.495827025 736.0
85.512538294 708.0
85.529249563 700.0
85.545960832 714.0
85.562672101 688.0
85.579383370 698.0
85.596094639 714.0
85.612805908 691.0
85.629517177 693.0
85.646228446 681.0
85.662939715 668.0
85.679650984 663.0
85.696362253 685.0
85.713073522 672.0
85.729784791 693.0
85.746496060 682.0
85.763207329 703.0
85.779918598 706.0
85.796629867 749.0
85.813341136 732.0
85.830052405 674.0
85.846763674 707.0
85.863474943 699.0
85.880186212 653.0
85.896897481 641.0
85.913608750 710.0
85.930320018 669.0
85.947031287 689.0
85.963742556 759.0
85.980453825 675.0
85.997165094 734.0
86.013876363 725.0
86.030587632 733.0
86.047298901 659.0
86.064010170 718.0
86.080721439 705.0
86.097432708 736.0
86.114143977 699.0
86.130855246 678.0
86.147566515 671.0
86.164277784 722.0
86.180989053 722.0
86.197700322 660.0
86.214411591 702.0
86.231122860 720.0
86.247834129 683.0
86.264545398 678.0
86.281256667 691.0
86.297967936 712.0
86.314679205 663.0
86.331390474 734.0
86.348101743 707.0
86.364813012 680.0
86.381524281 712.0
86.398235550 694.0
86.414946819 679.0
86.431658088 703.0
86.448369357 683.0
86.465080626 677.0
86.481791895 656.0
86.498503164 704.0
86.515214433 731.0
86.531925702 634.0
86.548636971 658.0
86.565348240 671.0
86.582059509 717.0
86.598770778 710.0
86.615482047 716.0
86.632193316 701.0
86.648904585 691.0
86.665615854 679.0
86.682327122 754.0
86.699038391 734.0
86.715749660 683.0
86.732460929 749.0
86.749172198 705.0
86.765883467 743.0
86.782594736 738.0
86.799306005 681.0
86.816017274 755.0
86.832728543 629.0
86.849439812 731.0
86.866151081 743.0
86.882862350 712.0
86.899573619 726.0
86.916284888 731.0
86.932996157 725.0
86.949707426 758.0
86.966418695 791.0
86.983129964 774.0
86.999841233 810.0
87.016552502 821.0
87.033263771 860.0
87.049975040 846.0
87.066686309 884.0
87.083397578 963.0
87.100108847 1024.0
87.116820116 1043.0
87.133531385 1083.0
87.150242654 1194.0
87.166953923 1250.0
87.183665192 1355.0
87.200376461 1345.0
87.217087730 1428.0
87.233798999 1488.0
87.250510268 1467.0
87.267221537 1395.0
87.283932806 1347.0
87.300644075 1259.0
87.317355344 1278.0
87.334066613 1235.0
87.350777882 1234.0
87.367489151 1314.0
87.384200420 1245.0
87.400911689 1284.0
87.417622957 1298.0
87.434334226 1305.0
87.451045495 1284.0
87.467756764 1393.0
87.484468033 1295.0
87.501179302 1325.0
87.517890571 1273.0
87.534601840 1315.0
87.551313109 1194.0
87.568024378 1159.0
87.584735647 1174.0
87.601446916 1091.0
87.618158185 1093.0
87.634869454 1064.0
87.651580723 1054.0
87.668291992 1031.0
87.685003261 1112.0
87.701714530 1063.0
87.718425799 1071.0
87.735137068 1072.0
87.751848337 1060.0
87.768559606 961.0
87.785270875 987.0
87.801982144 968.0
87.818693413 935.0
87.835404682 885.0
87.852115951 860.0
87.868827220 870.0
87.885538489 832.0
87.902249758 807.0
87.918961027 826.0
87.935672296 781.0
87.952383565 774.0
87.969094834 825.0
87.985806103 825.0
88.002517372 878.0
88.019228641 780.0
88.035939910 789.0
88.052651179 843.0
88.069362448 750.0
88.086073717 743.0
88.102784986 722.0
88.119496255 772.0
88.136207524 724.0
88.152918792 698.0
88.169630061 698.0
88.186341330 720.0
88.203052599 722.0
88.219763868 739.0
88.236475137 726.0
88.253186406 688.0
88.269897675 663.0
88.286608944 698.0
88.303320213 703.0
88.320031482 726.0
88.336742751 685.0
88.353454020 759.0
88.370165289 701.0
88.386876558 791.0
88.403587827 686.0
88.420299096 679.0
88.437010365 731.0
88.453721634 670.0
88.470432903 669.0
88.487144172 748.0
88.503855441 691.0
88.520566710 661.0
88.537277979 631.0
88.553989248 729.0
88.570700517 672.0
88.587411786 699.0
88.604123055 678.0
88.620834324 642.0
88.637545593 629.0
88.654256862 649.0
88.670968131 697.0
88.687679400 681.0
88.704390669 682.0
88.721101938 661.0
88.737813207 716.0
88.754524476 659.0
88.771235745 657.0
88.787947014 617.0
88.804658283 680.0
88.821369552 672.0
88.838080821 668.0
88.854792090 689.0
88.871503359 678.0
88.888214627 654.0
88.904925896 706.0
88.921637165 676.0
88.938348434 694.0
88.955059703 649.0
88.971770972 662.0
88.988482241 682.0
89.005193510 698.0
89.021904779 642.0
89.038616048 652.0
89.055327317 714.0
89.072038586 637.0
89.088749855 678.0
89.105461124 672.0
89.122172393 661.0
89.138883662 637.0
89.155594931 676.0
89.172306200 683.0
89.189017469 701.0
89.205728738 657.0
89.222440007 720.0
89.239151276 703.0
89.255862545 686.0
89.272573814 636.0
89.289285083 688.0
89.305996352 708.0
89.322707621 713.0
89.339418890 703.0
89.356130159 691.0
89.372841428 677.0
89.389552697 718.0
89.406263966 704.0
89.422975235 676.0
89.439686504 644.0
89.456397773 638.0
89.473109042 732.0
89.489820311 711.0
89.506531580 737.0
89.523242849 681.0
89.539954118 685.0
89.556665387 679.0
89.573376656 698.0
89.590087925 678.0
89.606799194 724.0
89.623510462 707.0
89.640221731 694.0
89.656933000 678.0
89.673644269 670.0
89.690355538 664.0
89.707066807 636.0
89.723778076 658.0
89.740489345 660.0
89.757200614 679.0
89.773911883 674.0
89.790623152 659.0
89.807334421 648.0
89.824045690 610.0
89.840756959 697.0
89.857468228 704.0
89.874179497 663.0
89.890890766 632.0
89.907602035 694.0
89.924313304 667.0
89.941024573 674.0
89.957735842 656.0
89.974447111 663.0
89.991158380 698.0
