5.000000 1127.000000
5.221000 1126.000000
5.442100 1185.000000
5.663100 1260.000000
5.884200 1213.000000
6.105200 1307.000000
6.326300 1275.000000
6.547300 1339.000000
6.768400 1351.000000
6.989400 1382.000000
7.210500 1420.000000
7.431500 1410.000000
7.652600 1457.000000
7.873600 1467.000000
8.094700 1404.000000
8.315700 1341.000000
8.536800 1347.000000
8.757800 1292.000000
8.978900 1337.000000
9.199900 1321.000000
9.421000 1332.000000
9.642000 1287.000000
9.863100 1297.000000
10.084100 1190.000000
10.305200 1184.000000
10.526200 1180.000000
10.747300 1172.000000
10.968300 1162.000000
11.189400 1125.000000
11.410400 1066.000000
11.631500 1081.000000
11.852500 1054.000000
12.073600 975.000000
12.294700 1022.000000
12.515700 1019.000000
12.736800 1099.000000
12.957800 978.000000
13.178900 973.000000
13.399900 986.000000
13.621000 929.000000
13.842000 908.000000
14.063100 982.000000
14.284100 946.000000
14.505200 892.000000
14.726200 916.000000
14.947300 969.000000
15.168300 864.000000
15.389400 902.000000
15.610400 855.000000
15.831500 952.000000
16.052500 926.000000
16.273600 906.000000
16.494600 887.000000
16.715700 858.000000
16.936700 843.000000
17.157800 854.000000
17.378800 865.000000
17.599800 884.000000
17.820900 812.000000
18.041900 843.000000
18.263000 912.000000
18.484000 908.000000
18.705100 877.000000
18.926100 863.000000
19.147200 894.000000
19.368200 905.000000
19.589300 880.000000
19.810300 861.000000
20.031400 805.000000
20.252400 908.000000
20.473500 873.000000
20.694500 949.000000
20.915600 909.000000
21.136600 909.000000
21.357700 926.000000
21.578700 886.000000
21.799800 857.000000
22.020800 908.000000
22.241900 937.000000
22.462900 921.000000
22.684000 843.000000
22.905000 924.000000
23.126100 943.000000
23.347100 918.000000
23.568200 964.000000
23.789200 946.000000
24.010300 900.000000
24.231300 900.000000
24.452400 913.000000
24.673400 937.000000
24.894500 939.000000
25.115500 970.000000
25.336600 878.000000
25.557600 850.000000
25.778700 895.000000
25.999700 866.000000
26.220800 863.000000
26.441800 852.000000
26.662900 760.000000
26.883900 811.000000
27.105000 761.000000
27.326000 781.000000
27.547100 751.000000
27.768100 747.000000
27.989200 759.000000
28.210200 747.000000
28.431300 716.000000
28.652300 753.000000
28.873400 729.000000
29.094400 681.000000
29.315500 645.000000
29.536500 589.000000
29.757600 663.000000
29.978600 688.000000
30.199700 624.000000
30.420700 643.000000
30.641800 665.000000
30.862800 658.000000
31.083900 598.000000
31.304900 668.000000
31.526000 634.000000
31.747000 654.000000
31.968100 673.000000
32.189100 632.000000
32.410200 651.000000
32.631300 664.000000
32.852300 663.000000
33.073300 625.000000
33.294400 691.000000
33.515500 652.000000
33.736500 612.000000
33.957500 621.000000
34.178600 635.000000
34.399700 640.000000
34.620700 655.000000
34.841700 651.000000
35.062800 662.000000
35.283900 679.000000
35.504900 677.000000
35.725900 712.000000
35.947000 707.000000
36.168100 664.000000
36.389100 690.000000
36.610100 668.000000
36.831200 668.000000
37.052300 700.000000
37.273300 698.000000
37.494300 669.000000
37.715400 676.000000
37.936500 727.000000
38.157500 745.000000
38.378500 681.000000
38.599600 652.000000
38.820700 698.000000
39.041700 713.000000
39.262700 700.000000
39.483800 641.000000
39.704900 750.000000
39.925900 720.000000
40.146900 707.000000
40.368000 731.000000
40.589100 736.000000
40.810100 681.000000
41.031100 731.000000
41.252200 763.000000
41.473300 773.000000
41.694300 768.000000
41.915300 782.000000
42.136400 820.000000
42.357500 849.000000
42.578500 799.000000
42.799500 814.000000
43.020600 804.000000
43.241600 833.000000
43.462700 882.000000
43.683700 883.000000
43.904800 869.000000
44.125800 856.000000
44.346900 1212.000000
44.567900 2144.000000
44.789000 1943.000000
45.010000 1253.000000
45.231100 858.000000
45.452100 749.000000
45.673200 736.000000
45.894200 694.000000
46.115300 714.000000
46.336300 688.000000
46.557400 676.000000
46.778400 658.000000
46.999500 602.000000
47.220500 650.000000
47.441600 641.000000
47.662600 616.000000
47.883700 631.000000
48.104800 620.000000
48.325800 658.000000
48.546800 629.000000
48.767900 645.000000
48.989000 627.000000
49.210000 540.000000
49.431000 628.000000
49.652100 670.000000
49.873200 602.000000
50.094200 636.000000
50.315200 561.000000
50.536300 601.000000
50.757400 573.000000
50.978400 619.000000
51.199400 623.000000
51.420500 641.000000
51.641600 689.000000
51.862600 1054.000000
52.083600 1141.000000
52.304700 910.000000
52.525800 714.000000
52.746800 610.000000
52.967800 585.000000
53.188900 573.000000
53.410000 600.000000
53.631000 585.000000
53.852000 595.000000
54.073100 567.000000
54.294200 539.000000
54.515200 598.000000
54.736200 590.000000
54.957300 586.000000
55.178400 563.000000
55.399400 572.000000
55.620400 549.000000
55.841500 617.000000
56.062600 553.000000
56.283600 590.000000
56.504600 543.000000
56.725700 554.000000
56.946800 611.000000
57.167800 578.000000
57.388800 549.000000
57.609900 578.000000
57.831000 604.000000
58.052000 550.000000
58.273000 628.000000
58.494100 579.000000
58.715200 579.000000
58.936200 591.000000
59.157200 587.000000
59.378300 617.000000
59.599400 622.000000
59.820400 625.000000
60.041400 611.000000
60.262500 618.000000
60.483600 626.000000
60.704600 615.000000
60.925600 674.000000
61.146700 649.000000
61.367800 608.000000
61.588800 626.000000
61.809800 647.000000
62.030900 621.000000
62.252000 616.000000
62.473000 593.000000
62.694000 630.000000
62.915100 667.000000
63.136200 629.000000
63.357200 653.000000
63.578200 630.000000
63.799300 588.000000
64.020300 579.000000
64.241400 571.000000
64.462500 583.000000
64.683500 626.000000
64.904600 579.000000
65.125600 604.000000
65.346600 568.000000
65.567700 557.000000
65.788700 574.000000
66.009800 575.000000
66.230900 522.000000
66.451900 570.000000
66.673000 547.000000
66.894000 536.000000
67.115000 529.000000
67.336100 512.000000
67.557100 536.000000
67.778200 487.000000
67.999300 544.000000
68.220300 564.000000
68.441300 494.000000
68.662400 515.000000
68.883400 496.000000
69.104500 506.000000
69.325500 528.000000
69.546600 522.000000
69.767700 478.000000
69.988700 496.000000
70.209700 478.000000
70.430800 465.000000
70.651800 510.000000
70.872900 473.000000
71.093900 484.000000
71.315000 509.000000
71.536100 519.000000
71.757100 479.000000
71.978100 478.000000
72.199200 461.000000
72.420200 495.000000
72.641300 512.000000
72.862300 464.000000
73.083400 508.000000
73.304500 487.000000
73.525500 526.000000
73.746500 501.000000
73.967600 504.000000
74.188600 479.000000
74.409700 485.000000
74.630700 499.000000
74.851800 489.000000
75.072900 476.000000
75.293900 509.000000
75.514900 510.000000
75.736000 524.000000
75.957000 526.000000
76.178100 593.000000
76.399200 670.000000
76.620200 684.000000
76.841300 600.000000
77.062300 520.000000
77.283300 521.000000
77.504400 507.000000
77.725400 502.000000
77.946500 449.000000
78.167600 513.000000
78.388600 493.000000
78.609700 487.000000
78.830700 532.000000
79.051700 478.000000
79.272800 461.000000
79.493800 525.000000
79.714900 477.000000
79.936000 507.000000
80.157000 500.000000
80.378100 484.000000
80.599100 476.000000
80.820100 467.000000
81.041200 494.000000
81.262200 445.000000
81.483300 470.000000
81.704400 464.000000
81.925400 499.000000
82.146500 482.000000
82.367500 472.000000
82.588500 470.000000
82.809600 435.000000
83.030600 449.000000
83.251700 444.000000
83.472800 473.000000
83.693800 485.000000
83.914900 469.000000
84.135900 438.000000
84.356900 471.000000
84.578000 414.000000
84.799000 502.000000
85.020100 447.000000
85.241200 448.000000
85.462200 448.000000
85.683300 401.000000
85.904300 449.000000
86.125300 453.000000
86.346400 475.000000
86.567400 397.000000
86.788500 465.000000
87.009600 435.000000
87.230600 427.000000
87.451700 384.000000
87.672700 424.000000
87.893700 416.000000
88.114800 405.000000
88.335800 429.000000
88.556900 418.000000
88.778000 408.000000
88.999000 437.000000
89.220100 405.000000
89.441100 418.000000
89.662100 420.000000
89.883200 419.000000
90.104200 397.000000
90.325300 443.000000
90.546400 431.000000
90.767400 400.000000
90.988500 399.000000
91.209500 401.000000
91.430500 416.000000
91.651600 368.000000
91.872600 384.000000
92.093700 400.000000
92.314800 428.000000
92.535800 438.000000
92.756900 492.000000
92.977900 580.000000
93.198900 526.000000
93.420000 497.000000
93.641000 429.000000
93.862100 419.000000
94.083200 405.000000
94.304200 425.000000
94.525200 387.000000
94.746300 398.000000
94.967300 410.000000
95.188400 369.000000
95.409400 353.000000
95.630500 403.000000
95.851600 412.000000
96.072600 387.000000
96.293600 366.000000
96.514700 409.000000
96.735700 396.000000
96.956800 409.000000
97.177800 399.000000
97.398900 412.000000
97.620000 376.000000
97.841000 385.000000
98.062000 402.000000
98.283100 445.000000
98.504100 415.000000
98.725200 426.000000
98.946200 412.000000
99.167300 402.000000
99.388400 397.000000
99.609400 427.000000
99.830400 398.000000
