5.000000 693.000000
5.221000 519.000000
5.442100 533.000000
5.663100 509.000000
5.884200 540.000000
6.105200 556.000000
6.326300 514.000000
6.547300 571.000000
6.768400 516.000000
6.989400 527.000000
7.210500 581.000000
7.431500 557.000000
7.652600 574.000000
7.873600 577.000000
8.094700 579.000000
8.315700 569.000000
8.536800 594.000000
8.757800 532.000000
8.978900 600.000000
9.199900 624.000000
9.421000 552.000000
9.642000 561.000000
9.863100 606.000000
10.084100 563.000000
10.305200 636.000000
10.526200 676.000000
10.747300 645.000000
10.968300 692.000000
11.189400 686.000000
11.410400 718.000000
11.631500 744.000000
11.852500 772.000000
12.073600 729.000000
12.294700 817.000000
12.515700 824.000000
12.736800 833.000000
12.957800 827.000000
13.178900 748.000000
13.399900 760.000000
13.621000 736.000000
13.842000 704.000000
14.063100 681.000000
14.284100 668.000000
14.505200 659.000000
14.726200 626.000000
14.947300 625.000000
15.168300 601.000000
15.389400 629.000000
15.610400 595.000000
15.831500 638.000000
16.052500 577.000000
16.273600 573.000000
16.494600 542.000000
16.715700 574.000000
16.936700 592.000000
17.157800 573.000000
17.378800 672.000000
17.599800 651.000000
17.820900 625.000000
18.041900 641.000000
18.263000 593.000000
18.484000 597.000000
18.705100 607.000000
18.926100 675.000000
19.147200 576.000000
19.368200 638.000000
19.589300 626.000000
19.810300 537.000000
20.031400 615.000000
20.252400 556.000000
20.473500 622.000000
20.694500 616.000000
20.915600 592.000000
21.136600 559.000000
21.357700 544.000000
21.578700 561.000000
21.799800 532.000000
22.020800 484.000000
22.241900 463.000000
22.462900 448.000000
22.684000 443.000000
22.905000 400.000000
23.126100 443.000000
23.347100 442.000000
23.568200 406.000000
23.789200 375.000000
24.010300 416.000000
24.231300 393.000000
24.452400 397.000000
24.673400 363.000000
24.894500 387.000000
25.115500 358.000000
25.336600 386.000000
25.557600 337.000000
25.778700 331.000000
25.999700 352.000000
26.220800 309.000000
26.441800 328.000000
26.662900 324.000000
26.883900 305.000000
27.105000 305.000000
27.326000 336.000000
27.547100 326.000000
27.768100 302.000000
27.989200 278.000000
28.210200 290.000000
28.431300 315.000000
28.652300 310.000000
28.873400 292.000000
29.094400 289.000000
29.315500 298.000000
29.536500 260.000000
29.757600 268.000000
29.978600 278.000000
30.199700 270.000000
30.420700 286.000000
30.641800 289.000000
30.862800 275.000000
31.083900 284.000000
31.304900 294.000000
31.526000 268.000000
31.747000 252.000000
31.968100 263.000000
32.189100 273.000000
32.410200 266.000000
32.631300 255.000000
32.852300 273.000000
33.073300 269.000000
33.294400 270.000000
33.515500 238.000000
33.736500 267.000000
33.957500 275.000000
34.178600 270.000000
34.399700 298.000000
34.620700 270.000000
34.841700 265.000000
35.062800 257.000000
35.283900 267.000000
35.504900 289.000000
35.725900 263.000000
35.947000 243.000000
36.168100 232.000000
36.389100 257.000000
36.610100 254.000000
36.831200 239.000000
37.052300 265.000000
37.273300 270.000000
37.494300 229.000000
37.715400 246.000000
37.936500 248.000000
38.157500 244.000000
38.378500 260.000000
38.599600 256.000000
38.820700 236.000000
39.041700 256.000000
39.262700 216.000000
39.483800 259.000000
39.704900 242.000000
39.925900 221.000000
40.146900 235.000000
40.368000 243.000000
40.589100 217.000000
40.810100 190.000000
41.031100 232.000000
41.252200 250.000000
41.473300 239.000000
41.694300 243.000000
41.915300 230.000000
42.136400 236.000000
42.357500 233.000000
42.578500 236.000000
42.799500 236.000000
43.020600 237.000000
43.241600 219.000000
43.462700 243.000000
43.683700 231.000000
43.904800 215.000000
44.125800 237.000000
44.346900 260.000000
44.567900 246.000000
44.789000 234.000000
45.010000 222.000000
45.231100 207.000000
45.452100 227.000000
45.673200 194.000000
45.894200 230.000000
46.115300 212.000000
46.336300 202.000000
46.557400 213.000000
46.778400 207.000000
46.999500 203.000000
47.220500 190.000000
47.441600 205.000000
47.662600 195.000000
47.883700 208.000000
48.104800 199.000000
48.325800 210.000000
48.546800 200.000000
48.767900 216.000000
48.989000 211.000000
49.210000 224.000000
49.431000 207.000000
49.652100 192.000000
49.873200 215.000000
50.094200 194.000000
50.315200 208.000000
50.536300 212.000000
50.757400 228.000000
50.978400 211.000000
51.199400 164.000000
51.420500 206.000000
51.641600 187.000000
51.862600 227.000000
52.083600 208.000000
52.304700 195.000000
52.525800 205.000000
52.746800 201.000000
52.967800 203.000000
53.188900 228.000000
53.410000 203.000000
53.631000 203.000000
53.852000 202.000000
54.073100 195.000000
54.294200 195.000000
54.515200 218.000000
54.736200 193.000000
54.957300 189.000000
55.178400 224.000000
55.399400 201.000000
55.620400 189.000000
55.841500 196.000000
56.062600 233.000000
56.283600 190.000000
56.504600 207.000000
56.725700 202.000000
56.946800 226.000000
57.167800 233.000000
57.388800 215.000000
57.609900 209.000000
57.831000 191.000000
58.052000 225.000000
58.273000 209.000000
58.494100 212.000000
58.715200 212.000000
58.936200 211.000000
59.157200 239.000000
59.378300 239.000000
59.599400 240.000000
59.820400 255.000000
60.041400 211.000000
60.262500 248.000000
60.483600 272.000000
60.704600 228.000000
60.925600 274.000000
61.146700 245.000000
61.367800 245.000000
61.588800 256.000000
61.809800 230.000000
62.030900 236.000000
62.252000 228.000000
62.473000 270.000000
62.694000 250.000000
62.915100 240.000000
63.136200 244.000000
63.357200 252.000000
63.578200 231.000000
63.799300 249.000000
64.020300 236.000000
64.241400 219.000000
64.462500 254.000000
64.683500 208.000000
64.904600 252.000000
65.125600 235.000000
65.346600 240.000000
65.567700 204.000000
65.788700 210.000000
66.009800 228.000000
66.230900 236.000000
66.451900 213.000000
66.673000 219.000000
66.894000 240.000000
67.115000 192.000000
67.336100 193.000000
67.557100 206.000000
67.778200 188.000000
67.999300 192.000000
68.220300 212.000000
68.441300 190.000000
68.662400 207.000000
68.883400 210.000000
69.104500 178.000000
69.325500 200.000000
69.546600 187.000000
69.767700 211.000000
69.988700 194.000000
70.209700 211.000000
70.430800 212.000000
70.651800 187.000000
70.872900 207.000000
71.093900 182.000000
71.315000 196.000000
71.536100 190.000000
71.757100 190.000000
71.978100 179.000000
72.199200 190.000000
72.420200 157.000000
72.641300 180.000000
72.862300 193.000000
73.083400 208.000000
73.304500 166.000000
73.525500 182.000000
73.746500 167.000000
73.967600 197.000000
74.188600 175.000000
74.409700 174.000000
74.630700 199.000000
74.851800 194.000000
75.072900 163.000000
75.293900 196.000000
75.514900 180.000000
75.736000 207.000000
75.957000 154.000000
76.178100 213.000000
76.399200 179.000000
76.620200 187.000000
76.841300 157.000000
77.062300 169.000000
77.283300 217.000000
77.504400 191.000000
77.725400 194.000000
77.946500 172.000000
78.167600 189.000000
78.388600 175.000000
78.609700 166.000000
78.830700 186.000000
79.051700 199.000000
79.272800 189.000000
79.493800 182.000000
79.714900 181.000000
79.936000 198.000000
80.157000 200.000000
80.378100 176.000000
80.599100 194.000000
80.820100 213.000000
81.041200 172.000000
81.262200 162.000000
81.483300 189.000000
81.704400 168.000000
81.925400 187.000000
82.146500 195.000000
82.367500 193.000000
82.588500 194.000000
82.809600 169.000000
83.030600 181.000000
83.251700 182.000000
83.472800 136.000000
83.693800 169.000000
83.914900 167.000000
84.135900 158.000000
84.356900 157.000000
84.578000 181.000000
84.799000 180.000000
85.020100 182.000000
85.241200 179.000000
85.462200 157.000000
85.683300 153.000000
85.904300 143.000000
86.125300 142.000000
86.346400 153.000000
86.567400 154.000000
86.788500 163.000000
87.009600 144.000000
87.230600 144.000000
87.451700 171.000000
87.672700 140.000000
87.893700 145.000000
88.114800 128.000000
88.335800 135.000000
88.556900 133.000000
88.778000 141.000000
88.999000 144.000000
89.220100 139.000000
89.441100 130.000000
89.662100 136.000000
89.883200 148.000000
90.104200 138.000000
90.325300 140.000000
90.546400 133.000000
90.767400 139.000000
90.988500 139.000000
91.209500 138.000000
91.430500 107.000000
91.651600 118.000000
91.872600 135.000000
92.093700 139.000000
92.314800 141.000000
92.535800 128.000000
92.756900 149.000000
92.977900 138.000000
93.198900 119.000000
93.420000 132.000000
93.641000 121.000000
93.862100 126.000000
94.083200 125.000000
94.304200 146.000000
94.525200 118.000000
94.746300 142.000000
94.967300 136.000000
95.188400 138.000000
95.409400 133.000000
95.630500 140.000000
95.851600 124.000000
96.072600 143.000000
96.293600 135.000000
96.514700 121.000000
96.735700 106.000000
96.956800 145.000000
97.177800 140.000000
97.398900 148.000000
97.620000 138.000000
97.841000 111.000000
98.062000 156.000000
98.283100 130.000000
98.504100 139.000000
98.725200 129.000000
98.946200 125.000000
99.167300 142.000000
99.388400 131.000000
99.609400 150.000000
99.830400 130.000000
