5.000000 936.000000
5.221000 800.000000
5.442100 804.000000
5.663100 847.000000
5.884200 962.000000
6.105200 965.000000
6.326300 1065.000000
6.547300 1045.000000
6.768400 1055.000000
6.989400 1072.000000
7.210500 1061.000000
7.431500 1079.000000
7.652600 1101.000000
7.873600 1086.000000
8.094700 1138.000000
8.315700 1055.000000
8.536800 1123.000000
8.757800 1034.000000
8.978900 1010.000000
9.199900 1027.000000
9.421000 1019.000000
9.642000 1063.000000
9.863100 1002.000000
10.084100 1036.000000
10.305200 911.000000
10.526200 979.000000
10.747300 931.000000
10.968300 888.000000
11.189400 853.000000
11.410400 863.000000
11.631500 874.000000
11.852500 856.000000
12.073600 819.000000
12.294700 815.000000
12.515700 841.000000
12.736800 792.000000
12.957800 785.000000
13.178900 792.000000
13.399900 782.000000
13.621000 776.000000
13.842000 782.000000
14.063100 726.000000
14.284100 717.000000
14.505200 790.000000
14.726200 784.000000
14.947300 774.000000
15.168300 757.000000
15.389400 731.000000
15.610400 689.000000
15.831500 768.000000
16.052500 759.000000
16.273600 716.000000
16.494600 751.000000
16.715700 758.000000
16.936700 696.000000
17.157800 762.000000
17.378800 752.000000
17.599800 822.000000
17.820900 768.000000
18.041900 815.000000
18.263000 752.000000
18.484000 758.000000
18.705100 759.000000
18.926100 834.000000
19.147200 866.000000
19.368200 919.000000
19.589300 882.000000
19.810300 846.000000
20.031400 857.000000
20.252400 902.000000
20.473500 880.000000
20.694500 910.000000
20.915600 929.000000
21.136600 946.000000
21.357700 843.000000
21.578700 879.000000
21.799800 901.000000
22.020800 963.000000
22.241900 992.000000
22.462900 940.000000
22.684000 870.000000
22.905000 920.000000
23.126100 866.000000
23.347100 881.000000
23.568200 967.000000
23.789200 955.000000
24.010300 928.000000
24.231300 901.000000
24.452400 845.000000
24.673400 884.000000
24.894500 858.000000
25.115500 953.000000
25.336600 933.000000
25.557600 883.000000
25.778700 847.000000
25.999700 774.000000
26.220800 787.000000
26.441800 818.000000
26.662900 840.000000
26.883900 834.000000
27.105000 817.000000
27.326000 724.000000
27.547100 718.000000
27.768100 772.000000
27.989200 779.000000
28.210200 675.000000
28.431300 702.000000
28.652300 652.000000
28.873400 607.000000
29.094400 664.000000
29.315500 702.000000
29.536500 684.000000
29.757600 619.000000
29.978600 583.000000
30.199700 585.000000
30.420700 566.000000
30.641800 602.000000
30.862800 654.000000
31.083900 629.000000
31.304900 608.000000
31.526000 533.000000
31.747000 586.000000
31.968100 589.000000
32.189100 591.000000
32.410200 623.000000
32.631300 600.000000
32.852300 612.000000
33.073300 591.000000
33.294400 610.000000
33.515500 617.000000
33.736500 620.000000
33.957500 582.000000
34.178600 621.000000
34.399700 588.000000
34.620700 612.000000
34.841700 636.000000
35.062800 620.000000
35.283900 604.000000
35.504900 583.000000
35.725900 573.000000
35.947000 563.000000
36.168100 645.000000
36.389100 646.000000
36.610100 659.000000
36.831200 594.000000
37.052300 571.000000
37.273300 548.000000
37.494300 552.000000
37.715400 582.000000
37.936500 578.000000
38.157500 567.000000
38.378500 591.000000
38.599600 515.000000
38.820700 530.000000
39.041700 594.000000
39.262700 627.000000
39.483800 657.000000
39.704900 601.000000
39.925900 598.000000
40.146900 628.000000
40.368000 543.000000
40.589100 586.000000
40.810100 563.000000
41.031100 545.000000
41.252200 579.000000
41.473300 531.000000
41.694300 628.000000
41.915300 672.000000
42.136400 656.000000
42.357500 588.000000
42.578500 563.000000
42.799500 523.000000
43.020600 605.000000
43.241600 625.000000
43.462700 583.000000
43.683700 575.000000
43.904800 596.000000
44.125800 619.000000
44.346900 598.000000
44.567900 679.000000
44.789000 890.000000
45.010000 850.000000
45.231100 754.000000
45.452100 686.000000
45.673200 617.000000
45.894200 593.000000
46.115300 577.000000
46.336300 514.000000
46.557400 566.000000
46.778400 532.000000
46.999500 594.000000
47.220500 526.000000
47.441600 594.000000
47.662600 482.000000
47.883700 520.000000
48.104800 563.000000
48.325800 536.000000
48.546800 511.000000
48.767900 483.000000
48.989000 482.000000
49.210000 535.000000
49.431000 501.000000
49.652100 537.000000
49.873200 506.000000
50.094200 512.000000
50.315200 496.000000
50.536300 544.000000
50.757400 494.000000
50.978400 593.000000
51.199400 533.000000
51.420500 501.000000
51.641600 507.000000
51.862600 495.000000
52.083600 494.000000
52.304700 549.000000
52.525800 566.000000
52.746800 500.000000
52.967800 509.000000
53.188900 527.000000
53.410000 518.000000
53.631000 519.000000
53.852000 495.000000
54.073100 515.000000
54.294200 463.000000
54.515200 502.000000
54.736200 521.000000
54.957300 503.000000
55.178400 506.000000
55.399400 520.000000
55.620400 518.000000
55.841500 504.000000
56.062600 544.000000
56.283600 527.000000
56.504600 545.000000
56.725700 467.000000
56.946800 487.000000
57.167800 515.000000
57.388800 506.000000
57.609900 496.000000
57.831000 515.000000
58.052000 501.000000
58.273000 462.000000
58.494100 556.000000
58.715200 558.000000
58.936200 540.000000
59.157200 499.000000
59.378300 553.000000
59.599400 483.000000
59.820400 518.000000
60.041400 530.000000
60.262500 490.000000
60.483600 510.000000
60.704600 513.000000
60.925600 515.000000
61.146700 557.000000
61.367800 519.000000
61.588800 514.000000
61.809800 493.000000
62.030900 500.000000
62.252000 488.000000
62.473000 517.000000
62.694000 530.000000
62.915100 521.000000
63.136200 506.000000
63.357200 487.000000
63.578200 490.000000
63.799300 507.000000
64.020300 485.000000
64.241400 466.000000
64.462500 467.000000
64.683500 507.000000
64.904600 509.000000
65.125600 485.000000
65.346600 454.000000
65.567700 452.000000
65.788700 449.000000
66.009800 471.000000
66.230900 419.000000
66.451900 453.000000
66.673000 460.000000
66.894000 417.000000
67.115000 450.000000
67.336100 467.000000
67.557100 456.000000
67.778200 429.000000
67.999300 435.000000
68.220300 462.000000
68.441300 405.000000
68.662400 432.000000
68.883400 427.000000
69.104500 403.000000
69.325500 414.000000
69.546600 407.000000
69.767700 419.000000
69.988700 413.000000
70.209700 426.000000
70.430800 420.000000
70.651800 414.000000
70.872900 388.000000
71.093900 428.000000
71.315000 408.000000
71.536100 420.000000
71.757100 428.000000
71.978100 407.000000
72.199200 412.000000
72.420200 435.000000
72.641300 377.000000
72.862300 357.000000
73.083400 392.000000
73.304500 368.000000
73.525500 417.000000
73.746500 383.000000
73.967600 418.000000
74.188600 396.000000
74.409700 391.000000
74.630700 391.000000
74.851800 406.000000
75.072900 401.000000
75.293900 404.000000
75.514900 385.000000
75.736000 351.000000
75.957000 390.000000
76.178100 405.000000
76.399200 365.000000
76.620200 396.000000
76.841300 374.000000
77.062300 406.000000
77.283300 384.000000
77.504400 419.000000
77.725400 427.000000
77.946500 400.000000
78.167600 456.000000
78.388600 433.000000
78.609700 459.000000
78.830700 425.000000
79.051700 441.000000
79.272800 415.000000
79.493800 366.000000
79.714900 404.000000
79.936000 424.000000
80.157000 402.000000
80.378100 389.000000
80.599100 389.000000
80.820100 380.000000
81.041200 359.000000
81.262200 373.000000
81.483300 408.000000
81.704400 358.000000
81.925400 409.000000
82.146500 378.000000
82.367500 407.000000
82.588500 373.000000
82.809600 382.000000
83.030600 379.000000
83.251700 351.000000
83.472800 360.000000
83.693800 377.000000
83.914900 356.000000
84.135900 372.000000
84.356900 350.000000
84.578000 389.000000
84.799000 383.000000
85.020100 355.000000
85.241200 349.000000
85.462200 365.000000
85.683300 358.000000
85.904300 381.000000
86.125300 352.000000
86.346400 385.000000
86.567400 323.000000
86.788500 331.000000
87.009600 381.000000
87.230600 352.000000
87.451700 362.000000
87.672700 356.000000
87.893700 335.000000
88.114800 363.000000
88.335800 363.000000
88.556900 343.000000
88.778000 341.000000
88.999000 355.000000
89.220100 353.000000
89.441100 379.000000
89.662100 353.000000
89.883200 312.000000
90.104200 327.000000
90.325300 331.000000
90.546400 320.000000
90.767400 317.000000
90.988500 351.000000
91.209500 343.000000
91.430500 318.000000
91.651600 322.000000
91.872600 335.000000
92.093700 353.000000
92.314800 308.000000
92.535800 323.000000
92.756900 334.000000
92.977900 345.000000
93.198900 354.000000
93.420000 308.000000
93.641000 323.000000
93.862100 341.000000
94.083200 342.000000
94.304200 327.000000
94.525200 339.000000
94.746300 329.000000
94.967300 336.000000
95.188400 279.000000
95.409400 361.000000
95.630500 328.000000
95.851600 306.000000
96.072600 328.000000
96.293600 295.000000
96.514700 320.000000
96.735700 303.000000
96.956800 293.000000
97.177800 343.000000
97.398900 340.000000
97.620000 333.000000
97.841000 299.000000
98.062000 309.000000
98.283100 303.000000
98.504100 331.000000
98.725200 331.000000
98.946200 331.000000
99.167300 331.000000
99.388400 308.000000
99.609400 351.000000
99.830400 338.000000
