[nm]	norm A
	
350	0.488563159
350.5	0.494444963
351	0.499393147
351.5	0.504808141
352	0.509849687
352.5	0.515171319
353	0.520586313
353.5	0.526374755
354	0.531883111
354.5	0.537484829
355	0.543179909
355.5	0.548781626
356	0.554943516
356.5	0.560545234
357	0.566333676
357.5	0.572588927
358	0.577723835
358.5	0.584165811
359	0.589954253
359.5	0.596116142
360	0.602464756
360.5	0.608906731
361	0.615068621
361.5	0.620857063
362	0.627579124
362.5	0.633647652
363	0.640369713
363.5	0.645971431
364	0.652973579
364.5	0.659135468
365	0.666417701
365.5	0.672112781
366	0.679488376
366.5	0.685650266
367	0.691905518
367.5	0.699841285
368	0.706189898
368.5	0.712538512
369	0.719447297
369.5	0.726822892
370	0.731210905
370.5	0.738679862
371	0.745308561
371.5	0.752404071
372	0.758939408
372.5	0.765941555
373	0.772103445
373.5	0.778825506
374	0.785734292
374.5	0.792456353
375	0.798804967
375.5	0.804593409
376	0.810942022
376.5	0.818224255
377	0.824759593
377.5	0.830734759
378	0.837176734
378.5	0.842311642
379	0.848660256
379.5	0.854915507
380	0.85977033
380.5	0.865372047
381	0.871160489
381.5	0.876668845
382	0.881617029
382.5	0.887685557
383	0.892540379
383.5	0.897862011
384	0.902996919
384.5	0.907478293
385	0.912426477
385.5	0.917001214
386	0.921949398
386.5	0.925683876
387	0.930912146
387.5	0.934553263
388	0.939127999
388.5	0.942862478
389	0.946036785
389.5	0.950331435
390	0.953972552
390.5	0.95724022
391	0.960601251
391.5	0.964055644
392	0.966669779
392.5	0.970217533
393	0.972551582
393.5	0.975632527
394	0.977686491
394.5	0.980207264
395	0.982541313
395.5	0.984875362
396	0.986742601
396.5	0.98860984
397	0.990290356
397.5	0.991877509
398	0.993091215
398.5	0.994958454
399	0.995892074
399.5	0.996825693
400	0.997385865
400.5	0.997852675
401	0.998786294
401.5	0.999253104
402	0.999346466
402.5	1
403	1
403.5	0.999719914
404	0.999906638
404.5	0.998973018
405	0.998412847
405.5	0.998319485
406	0.996919055
406.5	0.996358883
407	0.995611988
407.5	0.994211558
408	0.992811129
408.5	0.991223975
409	0.989823546
409.5	0.988329754
410	0.985902343
410.5	0.98384838
411	0.981887779
411.5	0.979273644
412	0.977126319
412.5	0.97479227
413	0.972084773
413.5	0.968817104
414	0.965922883
414.5	0.963028662
415	0.959947717
415.5	0.956026515
416	0.952572122
416.5	0.949117729
417	0.945103165
417.5	0.941368686
418	0.937074036
418.5	0.933152834
419	0.928484735
419.5	0.923909999
420	0.919241901
420.5	0.914667165
421	0.909438895
421.5	0.904770796
422	0.89926244
422.5	0.894127532
423	0.8888059
423.5	0.883204183
424	0.877602465
424.5	0.871720661
425	0.865652133
425.5	0.85977033
426	0.853795164
426.5	0.84744655
427	0.840911213
427.5	0.834469237
428	0.828027262
428.5	0.821118476
429	0.814489777
429.5	0.807767715
430	0.800765568
430.5	0.793763421
431	0.786481188
431.5	0.77947904
432	0.772290169
432.5	0.764914574
433	0.757538979
433.5	0.750256745
434	0.742974512
434.5	0.735505555
435	0.727943236
435.5	0.720194193
436	0.712725236
436.5	0.704976193
437	0.697413874
437.5	0.689384745
438	0.681729064
438.5	0.673793297
439	0.666044254
439.5	0.658388572
440	0.650639529
440.5	0.642797124
441	0.635048081
441.5	0.627299038
442	0.619363271
442.5	0.611800952
443	0.603958547
443.5	0.59648959
444	0.588833909
444.5	0.58127159
445	0.573615909
445.5	0.56605359
446	0.558677995
446.5	0.551302399
447	0.544020166
447.5	0.536457847
448	0.5294557
448.5	0.522266828
449	0.515171319
449.5	0.507982448
450	0.500980301
450.5	0.494071515
451	0.487069368
451.5	0.480253945
452	0.473345159
452.5	0.46671646
453	0.46008776
453.5	0.453552423
454	0.447110447
454.5	0.44057511
455	0.434319858
455.5	0.427971245
456	0.421902717
456.5	0.415740827
457	0.4096723
457.5	0.403790496
458	0.398002054
458.5	0.39212025
459	0.386518532
459.5	0.380916814
460	0.375408459
460.5	0.369900103
461	0.364671833
461.5	0.359443563
462	0.354308655
462.5	0.349173747
463	0.344132201
463.5	0.339277378
464	0.334235832
464.5	0.32938101
465	0.324806274
465.5	0.31985809
466	0.315376716
466.5	0.310895341
467	0.306413967
467.5	0.301932593
468	0.297731304
468.5	0.293436654
469	0.289235366
469.5	0.285127439
470	0.280459341
470.5	0.276258052
471	0.272430212
471.5	0.268415647
472	0.264774531
472.5	0.261040052
473	0.257398936
473.5	0.253851181
474	0.25049015
474.5	0.246942396
475	0.243581365
475.5	0.240220334
476	0.237046027
476.5	0.233871721
477	0.230604052
477.5	0.227523107
478	0.224535524
478.5	0.221454579
479	0.218560359
479.5	0.215572776
480	0.212678555
480.5	0.209877696
481	0.207170199
481.5	0.20436934
482	0.201755205
482.5	0.19914107
483	0.196526935
483.5	0.194006162
484	0.191485389
484.5	0.18915134
485	0.186723929
485.5	0.184296518
486	0.181962468
486.5	0.179628419
487	0.177387732
487.5	0.175240407
488	0.17299972
488.5	0.170945757
489	0.168891793
489.5	0.16683783
490	0.164783867
490.5	0.162823266
491	0.160862665
491.5	0.158902063
492	0.157034824
492.5	0.155167585
493	0.153300345
493.5	0.151526468
494	0.149659229
494.5	0.147978713
495	0.146204836
495.5	0.144524321
496	0.142843805
496.5	0.141256652
497	0.139669499
497.5	0.138082345
498	0.136495192
498.5	0.134908038
499	0.133414247
499.5	0.132013818
500	0.130520026
500.5	0.129026235
501	0.127625805
501.5	0.126225376
502	0.12501167
502.5	0.123611241
503	0.122304173
503.5	0.121090468
504	0.1197834
504.5	0.118569695
505	0.117449351
505.5	0.116235646
506	0.11502194
506.5	0.113808235
507	0.112687891
507.5	0.111474185
508	0.110447204
508.5	0.10932686
509	0.108206517
509.5	0.107086173
510	0.106059191
510.5	0.10503221
511	0.103911866
511.5	0.102884885
512	0.101857903
512.5	0.100830921
513	0.09980394
513.5	0.09887032
514	0.097936701
514.5	0.096909719
515	0.095976099
515.5	0.09504248
516	0.094202222
516.5	0.093268602
517	0.092428345
517.5	0.091681449
518	0.090841191
518.5	0.090000934
519	0.089160676
519.5	0.088320418
520	0.087573523
520.5	0.086733265
521	0.085986369
521.5	0.085239473
522	0.084492578
522.5	0.083745682
523	0.082998786
523.5	0.082251891
524	0.081598357
524.5	0.080851461
525	0.080197927
525.5	0.079451032
526	0.078797498
526.5	0.078143964
527	0.07749043
527.5	0.076836897
528	0.076183363
528.5	0.075529829
529	0.074876295
529.5	0.074222762
530	0.07366259
530.5	0.073009056
531	0.072448884
531.5	0.071888713
532	0.071328541
532.5	0.070675007
533	0.070114835
533.5	0.069554663
534	0.068994492
534.5	0.06843432
535	0.067874148
535.5	0.067313976
536	0.066753805
536.5	0.066286995
537	0.065726823
537.5	0.065166651
538	0.064699841
538.5	0.064233031
539	0.06367286
539.5	0.06320605
540	0.06273924
540.5	0.06227243
541	0.061712258
541.5	0.061245449
542	0.060778639
542.5	0.060311829
543	0.059938381
543.5	0.059471571
544	0.059004761
544.5	0.058537952
545	0.058164504
545.5	0.057791056
546	0.057324246
546.5	0.056950798
547	0.056483988
547.5	0.056110541
548	0.055737093
548.5	0.055270283
549	0.054896835
549.5	0.054523387
550	0.054149939
550.5	0.053683129
551	0.053309682
551.5	0.052936234
552	0.052656148
552.5	0.0522827
553	0.051909252
553.5	0.051535804
554	0.051162356
554.5	0.050788909
555	0.050508823
555.5	0.050135375
556	0.049761927
556.5	0.049481841
557	0.049201755
557.5	0.048828307
558	0.048548221
558.5	0.048174774
559	0.047894688
559.5	0.04752124
560	0.047241154
560.5	0.046961068
561	0.046680982
561.5	0.046307534
562	0.046027448
562.5	0.045747363
563	0.045467277
563.5	0.045187191
564	0.044907105
564.5	0.044627019
565	0.044346933
565.5	0.044066847
566	0.043786761
566.5	0.043506675
567	0.043226589
567.5	0.042946504
568	0.04275978
568.5	0.042479694
569	0.042199608
569.5	0.041919522
570	0.041639436
570.5	0.041452712
571	0.041172626
571.5	0.04089254
572	0.040705816
572.5	0.040425731
573	0.040239007
573.5	0.039958921
574	0.039772197
574.5	0.039492111
575	0.039305387
575.5	0.039025301
576	0.038838577
576.5	0.038651853
577	0.038371767
577.5	0.038091681
578	0.037904958
578.5	0.037718234
579	0.03753151
579.5	0.037251424
580	0.0370647
580.5	0.036877976
581	0.036691252
581.5	0.036504528
582	0.036224442
582.5	0.036037718
583	0.035850994
583.5	0.03566427
584	0.035477546
584.5	0.035290823
585	0.035104099
585.5	0.034917375
586	0.034730651
586.5	0.034543927
587	0.034357203
587.5	0.034170479
588	0.033983755
588.5	0.033797031
589	0.033610307
589.5	0.033423583
590	0.033236859
590.5	0.033143497
591	0.032956773
591.5	0.032770049
592	0.032583326
592.5	0.032489964
593	0.03230324
593.5	0.032116516
594	0.031929792
594.5	0.031743068
595	0.031649706
595.5	0.03136962
596	0.031276258
596.5	0.031182896
597	0.030996172
597.5	0.030809448
598	0.030622724
598.5	0.030529362
599	0.030342638
599.5	0.030155914
600	0.030062553
600.5	0.029875829
601	0.029782467
601.5	0.029595743
602	0.029409019
602.5	0.029315657
603	0.029222295
603.5	0.029035571
604	0.028942209
604.5	0.028755485
605	0.028662123
605.5	0.028475399
606	0.028382037
606.5	0.028195313
607	0.028101951
607.5	0.027915227
608	0.027821865
608.5	0.027728503
609	0.027541779
609.5	0.027448418
610	0.027355056
610.5	0.027168332
611	0.02707497
611.5	0.026981608
612	0.026794884
612.5	0.026701522
613	0.026514798
613.5	0.026421436
614	0.026328074
614.5	0.026234712
615	0.02614135
615.5	0.025954626
616	0.025861264
616.5	0.025767902
617	0.02567454
617.5	0.025487816
618	0.025394454
618.5	0.025301092
619	0.02520773
619.5	0.025114368
620	0.025021006
620.5	0.024927644
621	0.024740921
621.5	0.024647559
622	0.024554197
622.5	0.024460835
623	0.024367473
623.5	0.024274111
624	0.024180749
624.5	0.024087387
625	0.023994025
625.5	0.023900663
626	0.023713939
626.5	0.023620577
627	0.023527215
627.5	0.023433853
628	0.023340491
628.5	0.023247129
629	0.023153767
629.5	0.023060405
630	0.022967043
630.5	0.022873681
631	0.022780319
631.5	0.022780319
632	0.022593595
632.5	0.022593595
633	0.022500233
633.5	0.022406871
634	0.022313509
634.5	0.022220148
635	0.022126786
635.5	0.022033424
636	0.021940062
636.5	0.0218467
637	0.021753338
637.5	0.021659976
638	0.021566614
638.5	0.021473252
639	0.021473252
639.5	0.02137989
640	0.021286528
640.5	0.021193166
641	0.021099804
641.5	0.021099804
642	0.021006442
642.5	0.02091308
643	0.020819718
643.5	0.020726356
644	0.020726356
644.5	0.020632994
645	0.020539632
645.5	0.02044627
646	0.020352908
646.5	0.020352908
647	0.020259546
647.5	0.020166184
648	0.020072822
648.5	0.020072822
649	0.01997946
649.5	0.019886098
650	0.019886098
650.5	0.019792736
651	0.019699374
651.5	0.019606013
652	0.019606013
652.5	0.019512651
653	0.019512651
653.5	0.019419289
654	0.019325927
654.5	0.019232565
655	0.019232565
655.5	0.019139203
656	0.019045841
656.5	0.018952479
657	0.018952479
657.5	0.018859117
658	0.018859117
658.5	0.018765755
659	0.018672393
659.5	0.018672393
660	0.018579031
660.5	0.018485669
661	0.018485669
661.5	0.018392307
662	0.018298945
662.5	0.018298945
663	0.018205583
663.5	0.018205583
664	0.018112221
664.5	0.018018859
665	0.018018859
665.5	0.017925497
666	0.017925497
666.5	0.017832135
667	0.017738773
667.5	0.017738773
668	0.017645411
668.5	0.017645411
669	0.017552049
669.5	0.017552049
670	0.017458687
670.5	0.017458687
671	0.017365325
671.5	0.017271963
672	0.017271963
672.5	0.017178601
673	0.017178601
673.5	0.017085239
674	0.017085239
674.5	0.017085239
675	0.016991878
675.5	0.016898516
676	0.016898516
676.5	0.016805154
677	0.016805154
677.5	0.016805154
678	0.016711792
678.5	0.01661843
679	0.01661843
679.5	0.01661843
680	0.016525068
680.5	0.016525068
681	0.016431706
681.5	0.016431706
682	0.016431706
682.5	0.016338344
683	0.016244982
683.5	0.016244982
684	0.016244982
684.5	0.01615162
685	0.01615162
685.5	0.016058258
686	0.016058258
686.5	0.015964896
687	0.015964896
687.5	0.015871534
688	0.015871534
688.5	0.015871534
689	0.015778172
689.5	0.015778172
690	0.015778172
690.5	0.01568481
691	0.01568481
691.5	0.015591448
692	0.015591448
692.5	0.015591448
693	0.015498086
693.5	0.015498086
694	0.015404724
694.5	0.015404724
695	0.015404724
695.5	0.015311362
696	0.015311362
696.5	0.015311362
697	0.015311362
697.5	0.015218
698	0.015124638
698.5	0.015124638
699	0.015124638
699.5	0.015031276
700	0.015031276
700.5	0.015031276
701	0.014937914
701.5	0.014937914
702	0.014937914
702.5	0.014844552
703	0.014844552
703.5	0.01475119
704	0.01475119
704.5	0.01475119
705	0.01475119
705.5	0.014657828
706	0.014657828
706.5	0.014657828
707	0.014564466
707.5	0.014564466
708	0.014564466
708.5	0.014564466
709	0.014471104
709.5	0.014471104
710	0.014471104
710.5	0.014377743
711	0.014377743
711.5	0.014377743
712	0.014377743
712.5	0.014284381
713	0.014284381
713.5	0.014284381
714	0.014191019
714.5	0.014191019
715	0.014191019
715.5	0.014097657
716	0.014097657
716.5	0.014097657
717	0.014097657
717.5	0.014004295
718	0.014004295
718.5	0.014004295
719	0.013910933
719.5	0.013910933
720	0.013910933
720.5	0.013910933
721	0.013910933
721.5	0.013817571
722	0.013817571
722.5	0.013817571
723	0.013817571
723.5	0.013724209
724	0.013724209
724.5	0.013724209
725	0.013724209
725.5	0.013630847
726	0.013630847
726.5	0.013630847
727	0.013630847
727.5	0.013537485
728	0.013537485
728.5	0.013537485
729	0.013444123
729.5	0.013444123
730	0.013444123
730.5	0.013444123
731	0.013350761
731.5	0.013350761
732	0.013350761
732.5	0.013257399
733	0.013257399
733.5	0.013257399
734	0.013257399
734.5	0.013257399
735	0.013164037
735.5	0.013164037
736	0.013164037
736.5	0.013070675
737	0.013070675
737.5	0.013070675
738	0.013070675
738.5	0.013070675
739	0.012977313
739.5	0.012977313
740	0.012977313
740.5	0.012977313
741	0.012977313
741.5	0.012883951
742	0.012883951
742.5	0.012883951
743	0.012883951
743.5	0.012883951
744	0.012883951
744.5	0.012883951
745	0.012790589
745.5	0.012790589
746	0.012790589
746.5	0.012790589
747	0.012697227
747.5	0.012697227
748	0.012697227
748.5	0.012697227
749	0.012697227
749.5	0.012697227
750	0.012603865
750.5	0.012603865
751	0.012603865
751.5	0.012603865
752	0.012603865
752.5	0.012510503
753	0.012603865
753.5	0.012510503
754	0.012510503
754.5	0.012510503
755	0.012510503
755.5	0.012510503
756	0.012417141
756.5	0.012417141
757	0.012417141
757.5	0.012417141
758	0.012417141
758.5	0.012323779
759	0.012323779
759.5	0.012323779
760	0.012323779
760.5	0.012230417
761	0.012323779
761.5	0.012323779
762	0.012323779
762.5	0.012230417
763	0.012230417
763.5	0.012230417
764	0.012230417
764.5	0.012230417
765	0.012137055
765.5	0.012137055
766	0.012137055
766.5	0.012137055
767	0.012137055
767.5	0.012043693
768	0.012137055
768.5	0.012043693
769	0.012043693
769.5	0.012043693
770	0.012043693
770.5	0.012043693
771	0.011950331
771.5	0.011950331
772	0.011950331
772.5	0.011950331
773	0.011950331
773.5	0.011950331
774	0.011950331
774.5	0.011856969
775	0.011856969
775.5	0.011856969
776	0.011763608
776.5	0.011856969
777	0.011856969
777.5	0.011856969
778	0.011763608
778.5	0.011763608
779	0.011763608
779.5	0.011763608
780	0.011763608
780.5	0.011670246
781	0.011670246
781.5	0.011670246
782	0.011670246
782.5	0.011576884
783	0.011576884
783.5	0.011670246
784	0.011576884
784.5	0.011576884
785	0.011576884
785.5	0.011576884
786	0.011576884
786.5	0.011483522
787	0.011483522
787.5	0.011483522
788	0.011483522
788.5	0.011483522
789	0.01139016
789.5	0.01139016
790	0.01139016
790.5	0.01139016
791	0.01139016
791.5	0.01139016
792	0.011296798
792.5	0.011296798
793	0.011296798
793.5	0.011296798
794	0.011296798
794.5	0.011296798
795	0.011203436
795.5	0.011203436
796	0.011203436
796.5	0.011203436
797	0.011203436
797.5	0.011203436
798	0.011110074
798.5	0.011110074
799	0.011110074
799.5	0.011110074
800	0.011110074
800.5	0.011110074
801	0.011016712
801.5	0.011016712
802	0.011016712
802.5	0.011016712
803	0.011016712
803.5	0.01092335
804	0.01092335
804.5	0.01092335
805	0.010829988
805.5	0.01092335
806	0.010829988
806.5	0.010829988
807	0.010829988
807.5	0.010829988
808	0.010736626
808.5	0.010829988
809	0.010736626
809.5	0.010736626
810	0.010736626
810.5	0.010736626
811	0.010736626
811.5	0.010643264
812	0.010643264
812.5	0.010643264
813	0.010643264
813.5	0.010549902
814	0.010549902
814.5	0.010643264
815	0.010549902
815.5	0.010549902
816	0.01045654
816.5	0.01045654
817	0.01045654
817.5	0.01045654
818	0.010363178
818.5	0.01045654
819	0.010363178
819.5	0.010363178
820	0.010363178
820.5	0.010269816
821	0.010269816
821.5	0.010269816
822	0.010269816
822.5	0.010269816
823	0.010269816
823.5	0.010176454
824	0.010176454
824.5	0.010176454
825	0.010176454
825.5	0.010176454
826	0.010083092
826.5	0.010083092
827	0.010083092
827.5	0.010083092
828	0.00998973
828.5	0.00998973
829	0.00998973
829.5	0.00998973
830	0.00998973
830.5	0.009896368
831	0.009896368
831.5	0.009803006
832	0.009803006
832.5	0.009803006
833	0.009803006
833.5	0.009803006
834	0.009803006
834.5	0.009709644
835	0.009709644
835.5	0.009709644
836	0.009709644
836.5	0.009616282
837	0.009616282
837.5	0.009616282
838	0.009616282
838.5	0.00952292
839	0.00952292
839.5	0.00952292
840	0.00952292
840.5	0.009429558
841	0.009429558
841.5	0.009429558
842	0.009429558
842.5	0.009336196
843	0.009336196
843.5	0.009336196
844	0.009336196
844.5	0.009242834
845	0.009242834
845.5	0.009242834
846	0.009149473
846.5	0.009149473
847	0.009149473
847.5	0.009149473
848	0.009149473
848.5	0.009056111
849	0.009056111
849.5	0.009056111
850	0.008962749
