[nm]	norm A
	
350	0.245946334
350.5	0.248887932
351	0.251829531
351.5	0.25455589
352	0.257425743
352.5	0.260510834
353	0.263524179
353.5	0.266465777
354	0.270124839
354.5	0.27320993
355	0.27651026
355.5	0.279595351
356	0.283469651
356.5	0.286769981
357	0.290572536
357.5	0.294159851
358	0.297747166
358.5	0.30154972
359	0.305208782
359.5	0.309298321
360	0.313244368
360.5	0.317118668
361	0.3213517
361.5	0.325226001
362	0.329243794
362.5	0.333476826
363	0.337494619
363.5	0.34194289
364	0.346319415
364.5	0.3504807
365	0.355072464
365.5	0.359664227
366	0.364184245
366.5	0.368991247
367	0.374085235
367.5	0.378605252
368	0.383484001
368.5	0.388362749
369	0.393456737
369.5	0.399124695
370	0.403644712
370.5	0.409456163
371	0.414980628
371.5	0.420863826
372	0.426173052
372.5	0.432056249
373	0.438154685
373.5	0.444109628
374	0.449992825
374.5	0.4563065
375	0.462691921
375.5	0.468790357
376	0.475247525
376.5	0.481704692
377	0.488305352
377.5	0.49476252
378	0.501721911
378.5	0.50853781
379	0.51513847
379.5	0.522097862
380	0.528913761
380.5	0.53630363
381	0.542976037
381.5	0.549935428
382	0.557540537
382.5	0.564715167
383	0.571315827
383.5	0.578849189
384	0.585952073
384.5	0.593126704
385	0.600229588
385.5	0.607117233
386	0.613933132
386.5	0.620749031
387	0.627708423
387.5	0.633878605
388	0.640694504
388.5	0.646721194
389	0.652891376
389.5	0.658846319
390	0.664514278
390.5	0.669751758
391	0.674917492
391.5	0.679652748
392	0.684531497
392.5	0.688334051
393	0.692351844
393.5	0.695580428
394	0.698809011
394.5	0.701320132
395	0.703400775
395.5	0.705409671
396	0.70698809
396.5	0.707920792
397	0.708207777
397.5	0.708566509
398	0.707992538
398.5	0.707275075
399	0.705911896
399.5	0.704476969
400	0.702755058
400.5	0.699956952
401	0.697158846
401.5	0.694217248
402	0.690773425
402.5	0.68718611
403	0.683527048
403.5	0.679437509
404	0.674917492
404.5	0.670253982
405	0.665805711
405.5	0.660711723
406	0.656048214
406.5	0.650954226
407	0.645788492
407.5	0.640335773
408	0.6349548
408.5	0.629789066
409	0.624623332
409.5	0.61902712
410	0.613574401
410.5	0.607978189
411	0.602238485
411.5	0.596785766
412	0.590902569
412.5	0.585521596
413	0.579781891
413.5	0.574400918
414	0.568517721
414.5	0.563136748
415	0.557612283
415.5	0.551800832
416	0.546348113
416.5	0.540751901
417	0.535083943
417.5	0.52970297
418	0.523963266
418.5	0.518654039
419	0.513273066
419.5	0.507748601
420	0.502224135
420.5	0.496914909
421	0.491749175
421.5	0.486368202
422	0.481058975
422.5	0.475893241
423	0.470727508
423.5	0.465777012
424	0.460539532
424.5	0.45573253
425	0.450853781
425.5	0.446046779
426	0.441311522
426.5	0.436648013
427	0.432127995
427.5	0.427536232
428	0.423231454
428.5	0.418854929
429	0.414621897
429.5	0.410604104
430	0.406442818
430.5	0.402425025
431	0.398622471
431.5	0.394604678
432	0.391089109
432.5	0.387358301
433	0.383770986
433.5	0.380183671
434	0.376739848
434.5	0.373367772
435	0.370067442
435.5	0.366695365
436	0.363538528
436.5	0.360238198
437	0.357296599
437.5	0.354068015
438	0.351198163
438.5	0.348328311
439	0.345458459
439.5	0.342588607
440	0.34000574
440.5	0.33727938
441	0.334696513
441.5	0.332185392
442	0.329817764
442.5	0.327450136
443	0.325154255
443.5	0.323073612
444	0.320849476
444.5	0.318912326
445	0.316903429
445.5	0.315038026
446	0.313172622
446.5	0.31145071
447	0.309872292
447.5	0.308293873
448	0.306643708
448.5	0.305280528
449	0.303917348
449.5	0.302625915
450	0.301406228
450.5	0.30018654
451	0.299110346
451.5	0.298034151
452	0.297101449
452.5	0.296168747
453	0.295379538
453.5	0.294590329
454	0.293801119
454.5	0.293155402
455	0.292509686
455.5	0.292007462
456	0.291505237
456.5	0.291003013
457	0.290572536
457.5	0.290142058
458	0.289855072
458.5	0.289568087
459	0.289281102
459.5	0.288994117
460	0.288707132
460.5	0.288707132
461	0.288491893
461.5	0.288491893
462	0.288276654
462.5	0.288204907
463	0.288061415
463.5	0.288133161
464	0.287917922
464.5	0.288133161
465	0.288061415
465.5	0.288061415
466	0.288133161
466.5	0.287989669
467	0.288204907
467.5	0.288133161
468	0.288276654
468.5	0.288420146
469	0.288563639
469.5	0.288563639
470	0.288563639
470.5	0.288707132
471	0.288778878
471.5	0.288850624
472	0.289065863
472.5	0.289137609
473	0.289209356
473.5	0.289424595
474	0.289568087
474.5	0.289639834
475	0.289855072
475.5	0.289998565
476	0.290213804
476.5	0.290429043
477	0.290572536
477.5	0.290859521
478	0.29107476
478.5	0.291361745
479	0.29164873
479.5	0.291863969
480	0.292222701
480.5	0.292509686
481	0.292940164
481.5	0.293298895
482	0.293657627
482.5	0.294088104
483	0.294518582
483.5	0.29494906
484	0.295523031
484.5	0.296097001
485	0.296670971
485.5	0.297244942
486	0.297890659
486.5	0.298536375
487	0.299182092
487.5	0.299899555
488	0.300617018
488.5	0.301477974
489	0.30233893
489.5	0.303128139
490	0.304060841
490.5	0.304921797
491	0.305926245
491.5	0.306930693
492	0.307935141
492.5	0.309083082
493	0.310159277
493.5	0.311307218
494	0.312526905
494.5	0.313746592
495	0.315038026
495.5	0.316401205
496	0.317692639
496.5	0.319055819
497	0.320562491
497.5	0.321925671
498	0.32350409
498.5	0.325082508
499	0.326660927
499.5	0.328382838
500	0.33010475
500.5	0.331898407
501	0.333835557
501.5	0.335772708
502	0.337709858
502.5	0.339862247
503	0.342014636
503.5	0.344238772
504	0.346462907
504.5	0.348830535
505	0.35126991
505.5	0.35378103
506	0.356292151
506.5	0.358875018
507	0.361457885
507.5	0.364040752
508	0.366767111
508.5	0.369349978
509	0.372076338
509.5	0.374730951
510	0.377457311
510.5	0.380183671
511	0.382981776
511.5	0.385779882
512	0.388577988
512.5	0.391376094
513	0.394245946
513.5	0.397187545
514	0.400272636
514.5	0.403357727
515	0.406514564
515.5	0.409743148
516	0.413043478
516.5	0.416415555
517	0.419859377
517.5	0.423374946
518	0.426962261
518.5	0.430693069
519	0.434495623
519.5	0.438369924
520	0.442315971
520.5	0.446333764
521	0.450423303
521.5	0.454584589
522	0.458745875
522.5	0.462978907
523	0.467283685
523.5	0.471660209
524	0.476036734
524.5	0.480485005
525	0.484933276
525.5	0.489453293
526	0.494045057
526.5	0.49863682
527	0.50330033
527.5	0.508035586
528	0.512770842
528.5	0.517506098
529	0.522241355
529.5	0.527048357
530	0.531855359
530.5	0.536662362
531	0.541469364
531.5	0.546348113
532	0.551298608
532.5	0.556177357
533	0.561199598
533.5	0.56622184
534	0.571315827
534.5	0.576338069
535	0.581503803
535.5	0.58659779
536	0.591763524
536.5	0.596857512
537	0.602094992
537.5	0.607332472
538	0.612498206
538.5	0.617807433
539	0.623044913
539.5	0.628282393
540	0.63359162
540.5	0.638900847
541	0.644210073
541.5	0.649591046
542	0.654900273
542.5	0.660209499
543	0.665590472
543.5	0.670899699
544	0.676208925
544.5	0.681518152
545	0.686827378
545.5	0.692136605
546	0.697374085
546.5	0.702755058
547	0.707992538
547.5	0.713230019
548	0.718539245
548.5	0.723920218
549	0.729085952
549.5	0.734323432
550	0.739560913
550.5	0.7446549
551	0.749892381
551.5	0.754914622
552	0.76000861
552.5	0.765030851
553	0.769981346
553.5	0.774931841
554	0.779882336
554.5	0.784689338
555	0.789639834
555.5	0.79437509
556	0.799182092
556.5	0.803702109
557	0.808365619
557.5	0.812957383
558	0.817405654
558.5	0.821853925
559	0.826158703
559.5	0.830391735
560	0.834696513
560.5	0.838857799
561	0.843162577
561.5	0.847108624
562	0.851198163
562.5	0.855215956
563	0.859233749
563.5	0.863036304
564	0.866838858
564.5	0.870354427
565	0.874013488
565.5	0.877816042
566	0.881116373
566.5	0.884560195
567	0.887932271
567.5	0.891232602
568	0.894461185
568.5	0.897689769
569	0.90077486
569.5	0.903859951
570	0.906729803
570.5	0.909671402
571	0.912541254
571.5	0.915267614
572	0.917993973
572.5	0.92057684
573	0.923087961
573.5	0.925527335
574	0.927894963
574.5	0.93047783
575	0.932558473
575.5	0.934926101
576	0.93707849
576.5	0.939302626
577	0.941455015
577.5	0.943320419
578	0.945472808
578.5	0.947266466
579	0.94913187
579.5	0.950997274
580	0.952790931
580.5	0.954512843
581	0.956163008
581.5	0.958028412
582	0.959391591
582.5	0.961041756
583	0.962476682
583.5	0.963983355
584	0.965418281
584.5	0.966709714
585	0.968144641
585.5	0.969292581
586	0.970655761
586.5	0.971731956
587	0.972951643
587.5	0.974314823
588	0.975247525
588.5	0.976251973
589	0.977399914
589.5	0.978332616
590	0.979265318
590.5	0.980341512
591	0.981202468
591.5	0.982063424
592	0.982852633
592.5	0.983641842
593	0.984431052
593.5	0.985148515
594	0.985865978
594.5	0.986726934
595	0.987444397
595.5	0.988090113
596	0.988592337
596.5	0.989309801
597	0.989812025
597.5	0.990457741
598	0.991103458
598.5	0.991533936
599	0.991892668
599.5	0.992394892
600	0.992897116
600.5	0.993327594
601	0.993829818
601.5	0.994332042
602	0.994619027
602.5	0.995049505
603	0.99533649
603.5	0.995623475
604	0.9961257
604.5	0.996340938
605	0.996843163
605.5	0.996914909
606	0.99727364
606.5	0.997632372
607	0.997919357
607.5	0.998134596
608	0.998278089
608.5	0.998565074
609	0.998780313
609.5	0.998923805
610	0.998995552
610.5	0.999210791
611	0.999354283
611.5	0.999354283
612	0.999569522
612.5	0.999713015
613	0.999713015
613.5	0.999784761
614	0.999784761
614.5	0.999784761
615	0.999856507
615.5	0.999928254
616	1
616.5	1
617	1
617.5	0.999928254
618	1
618.5	0.999784761
619	0.999856507
619.5	0.999713015
620	0.999641268
620.5	0.999641268
621	0.999569522
621.5	0.99942603
622	0.99942603
622.5	0.999139044
623	0.999139044
623.5	0.998923805
624	0.99863682
624.5	0.998493328
625	0.998493328
625.5	0.998278089
626	0.998134596
626.5	0.997847611
627	0.997560626
627.5	0.997345387
628	0.997130148
628.5	0.996914909
629	0.996556177
629.5	0.996484431
630	0.996053953
630.5	0.995766968
631	0.995551729
631.5	0.995192998
632	0.994834266
632.5	0.994547281
633	0.994116803
633.5	0.993758071
634	0.99339934
634.5	0.992968862
635	0.992538384
635.5	0.991964414
636	0.991749175
636.5	0.991103458
637	0.99067298
637.5	0.990242503
638	0.989596786
638.5	0.989022815
639	0.988664084
639.5	0.988090113
640	0.987444397
640.5	0.98679868
641	0.986296456
641.5	0.985507246
642	0.985005022
642.5	0.984359305
643	0.983641842
643.5	0.982852633
644	0.982063424
644.5	0.981489453
645	0.980700244
645.5	0.979839288
646	0.979121825
646.5	0.978332616
647	0.97747166
647.5	0.976682451
648	0.975749749
648.5	0.974817047
649	0.973884345
649.5	0.97280815
650	0.971947195
650.5	0.970942746
651	0.969866552
651.5	0.968790357
652	0.967785909
652.5	0.966494476
653	0.965346535
653.5	0.96427034
654	0.962978907
654.5	0.961830966
655	0.960539532
655.5	0.959176352
656	0.957956665
656.5	0.956521739
657	0.955158559
657.5	0.953723633
658	0.952360453
658.5	0.950782035
659	0.949490601
659.5	0.94776869
660	0.946333764
660.5	0.944755345
661	0.94310518
661.5	0.941383269
662	0.939733104
662.5	0.937939446
663	0.936289281
663.5	0.934423877
664	0.93263022
664.5	0.930836562
665	0.928899412
665.5	0.927034008
666	0.924881619
666.5	0.923016215
667	0.920935572
667.5	0.918926675
668	0.91670254
668.5	0.914621897
669	0.912469508
669.5	0.91010188
670	0.907949491
670.5	0.905581863
671	0.903357727
671.5	0.900918353
672	0.898478978
672.5	0.896039604
673	0.893456737
673.5	0.891017363
674	0.888362749
674.5	0.885779882
675	0.883268762
675.5	0.880470656
676	0.877816042
676.5	0.875161429
677	0.872363323
677.5	0.869493471
678	0.866695365
678.5	0.863825513
679	0.860812168
679.5	0.85787057
680	0.854857225
680.5	0.85184388
681	0.848687043
681.5	0.845673698
682	0.84251686
682.5	0.83921653
683	0.835987947
683.5	0.832759363
684	0.829459033
684.5	0.826086957
685	0.822786626
685.5	0.819486296
686	0.816042474
686.5	0.812670397
687	0.809226575
687.5	0.805711006
688	0.802195437
688.5	0.798679868
689	0.795092553
689.5	0.791505237
690	0.787846176
690.5	0.784330607
691	0.780599799
691.5	0.776868991
692	0.77320993
692.5	0.769335629
693	0.765676568
693.5	0.761874013
694	0.757999713
694.5	0.754125413
695	0.750179366
695.5	0.746305065
696	0.742430765
696.5	0.738484718
697	0.734466925
697.5	0.730377386
698	0.726431339
698.5	0.722413546
699	0.718324006
699.5	0.71437796
700	0.711005883
700.5	0.706270627
701	0.702181088
701.5	0.698163295
702	0.694145502
702.5	0.690055962
703	0.685966423
703.5	0.681805137
704	0.677787344
704.5	0.673626058
705	0.669536519
705.5	0.665446979
706	0.661285694
706.5	0.657124408
707	0.652963122
707.5	0.64873009
708	0.644568805
708.5	0.640407519
709	0.636174487
709.5	0.631941455
710	0.627780169
710.5	0.623475391
711	0.619242359
711.5	0.615009327
712	0.610848041
712.5	0.606615009
713	0.602453724
713.5	0.598292438
714	0.594131152
714.5	0.590041613
715	0.585880327
715.5	0.581719041
716	0.577557756
716.5	0.573324724
717	0.569163438
717.5	0.564930406
718	0.560840867
718.5	0.556607835
719	0.552446549
719.5	0.548428756
720	0.544195724
720.5	0.540106185
721	0.536016645
721.5	0.531855359
722	0.527694074
722.5	0.523604534
723	0.519443249
723.5	0.515353709
724	0.511192424
724.5	0.507174631
725	0.503085091
725.5	0.498995552
726	0.494977759
726.5	0.491031712
727	0.487013919
727.5	0.483139618
728	0.479265318
728.5	0.475319271
729	0.471444971
729.5	0.46757067
730	0.46369637
730.5	0.459893815
731	0.456019515
731.5	0.452216961
732	0.448414407
732.5	0.444540106
733	0.440881045
733.5	0.437150237
734	0.433491175
734.5	0.429760367
735	0.426029559
735.5	0.422370498
736	0.418711436
736.5	0.415052375
737	0.411393313
737.5	0.407734252
738	0.40407519
738.5	0.400487875
739	0.39690056
739.5	0.393384991
740	0.389869422
740.5	0.386353853
741	0.38291003
741.5	0.379537954
742	0.376165877
742.5	0.372865547
743	0.369493471
743.5	0.366121395
744	0.362821065
744.5	0.359520735
745	0.356220405
745.5	0.352991821
746	0.349763237
746.5	0.3466064
747	0.343449562
747.5	0.340292725
748	0.337135888
748.5	0.334050796
749	0.330893959
749.5	0.327808868
750	0.324723777
750.5	0.321638686
751	0.318625341
751.5	0.315611996
752	0.312526905
752.5	0.309585306
753	0.306643708
753.5	0.303702109
754	0.300832257
754.5	0.297890659
755	0.295092553
755.5	0.292294447
756	0.289568087
756.5	0.286841728
757	0.284043622
757.5	0.281317262
758	0.278662649
758.5	0.275936289
759	0.273281676
759.5	0.270698809
760	0.268115942
760.5	0.265533075
761	0.262950208
761.5	0.260439087
762	0.257927967
762.5	0.255488592
763	0.252977472
763.5	0.250466351
764	0.248026977
764.5	0.245587602
765	0.243219974
765.5	0.2407806
766	0.238412972
766.5	0.236045344
767	0.233749462
767.5	0.23145358
768	0.229229445
768.5	0.226933563
769	0.224781174
769.5	0.222557038
770	0.220404649
770.5	0.21825226
771	0.216099871
771.5	0.214019228
772	0.211938585
772.5	0.209857942
773	0.207777299
773.5	0.205768403
774	0.203831253
774.5	0.201822356
775	0.199885206
775.5	0.197948056
776	0.196010905
776.5	0.194145502
777	0.192208351
777.5	0.190342947
778	0.188477543
778.5	0.186612139
779	0.184818482
779.5	0.183024824
780	0.181231167
780.5	0.179437509
781	0.177643851
781.5	0.17592194
782	0.174200029
782.5	0.172549864
783	0.170899699
783.5	0.169249534
784	0.167671115
784.5	0.16602095
785	0.164442531
785.5	0.162864112
786	0.161285694
786.5	0.159779021
787	0.158200603
787.5	0.15669393
788	0.155259004
788.5	0.153824078
789	0.152317406
789.5	0.15088248
790	0.149447553
790.5	0.148012627
791	0.146649448
791.5	0.145214521
792	0.143851342
792.5	0.142488162
793	0.141124982
793.5	0.139761802
794	0.138470369
794.5	0.137107189
795	0.135815755
795.5	0.134596068
796	0.133304635
796.5	0.132013201
797	0.13086526
797.5	0.129645573
798	0.128425886
798.5	0.127277945
799	0.126058258
799.5	0.124910317
800	0.123762376
800.5	0.122614435
801	0.121538241
801.5	0.120462046
802	0.119385852
802.5	0.118237911
803	0.117233462
803.5	0.116157268
804	0.11515282
804.5	0.114076625
805	0.11300043
805.5	0.112067729
806	0.11106328
806.5	0.110058832
807	0.109054384
807.5	0.108049935
808	0.107045487
808.5	0.106112785
809	0.105180083
809.5	0.104247381
810	0.103314679
810.5	0.102453724
811	0.101592768
811.5	0.100660066
812	0.09979911
812.5	0.098938155
813	0.098077199
813.5	0.097216243
814	0.096427034
814.5	0.095637825
815	0.094776869
815.5	0.09398766
816	0.09319845
816.5	0.092409241
817	0.091691778
817.5	0.090902569
818	0.090185105
818.5	0.089467642
819	0.088678433
819.5	0.08796097
820	0.087243507
820.5	0.086526044
821	0.085736835
821.5	0.085019372
822	0.084373655
822.5	0.083727938
823	0.083082221
823.5	0.082436505
824	0.081790788
824.5	0.081216817
825	0.080642847
825.5	0.07999713
826	0.07942316
826.5	0.078849189
827	0.078346965
827.5	0.077772995
828	0.077199024
828.5	0.076625054
829	0.07612283
829.5	0.075620606
830	0.075046635
830.5	0.074544411
831	0.074042187
831.5	0.073539963
832	0.072965992
832.5	0.072535514
833	0.071961544
833.5	0.071531066
834	0.070957096
834.5	0.070454872
835	0.069952647
835.5	0.069450423
836	0.068948199
836.5	0.068445975
837	0.067943751
837.5	0.067441527
838	0.066939303
838.5	0.066437078
839	0.066006601
839.5	0.065504377
840	0.065002152
840.5	0.064571675
841	0.06406945
841.5	0.063567226
842	0.063136748
842.5	0.062634524
843	0.062204046
843.5	0.061701822
844	0.061271345
844.5	0.06076912
845	0.060338643
845.5	0.059908165
846	0.059477687
846.5	0.059047209
847	0.058616731
847.5	0.058186253
848	0.057755776
848.5	0.057325298
849	0.056966566
849.5	0.056536088
850	0.056105611
