5.001355630 927.0
5.018066899 913.0
5.034778168 910.0
5.051489437 918.0
5.068200706 950.0
5.084911975 884.0
5.101623244 879.0
5.118334513 903.0
5.135045782 935.0
5.151757051 969.0
5.168468320 893.0
5.185179589 934.0
5.201890858 863.0
5.218602127 890.0
5.235313396 906.0
5.252024665 948.0
5.268735934 911.0
5.285447203 879.0
5.302158472 882.0
5.318869741 900.0
5.335581010 838.0
5.352292279 817.0
5.369003548 975.0
5.385714817 859.0
5.402426086 875.0
5.419137354 894.0
5.435848623 907.0
5.452559892 836.0
5.469271161 876.0
5.485982430 874.0
5.502693699 906.0
5.519404968 793.0
5.536116237 825.0
5.552827506 809.0
5.569538775 854.0
5.586250044 830.0
5.602961313 847.0
5.619672582 844.0
5.636383851 847.0
5.653095120 828.0
5.669806389 811.0
5.686517658 845.0
5.703228927 798.0
5.719940196 796.0
5.736651465 801.0
5.753362734 822.0
5.770074003 806.0
5.786785272 770.0
5.803496541 819.0
5.820207810 807.0
5.836919079 847.0
5.853630348 765.0
5.870341617 760.0
5.887052886 844.0
5.903764155 775.0
5.920475424 728.0
5.937186693 730.0
5.953897962 804.0
5.970609231 738.0
5.987320500 753.0
6.004031769 721.0
6.020743038 786.0
6.037454307 755.0
6.054165576 762.0
6.070876845 771.0
6.087588114 754.0
6.104299383 751.0
6.121010652 765.0
6.137721921 762.0
6.154433190 721.0
6.171144459 705.0
6.187855728 740.0
6.204566997 719.0
6.221278265 732.0
6.237989534 704.0
6.254700803 695.0
6.271412072 709.0
6.288123341 678.0
6.304834610 658.0
6.321545879 602.0
6.338257148 645.0
6.354968417 626.0
6.371679686 676.0
6.388390955 649.0
6.405102224 622.0
6.421813493 612.0
6.438524762 662.0
6.455236031 591.0
6.471947300 582.0
6.488658569 563.0
6.505369838 634.0
6.522081107 610.0
6.538792376 591.0
6.555503645 608.0
6.572214914 634.0
6.588926183 626.0
6.605637452 591.0
6.622348721 650.0
6.639059990 595.0
6.655771259 567.0
6.672482528 540.0
6.689193797 551.0
6.705905066 539.0
6.722616335 576.0
6.739327604 568.0
6.756038873 547.0
6.772750142 583.0
6.789461411 555.0
6.806172680 599.0
6.822883949 592.0
6.839595218 569.0
6.856306487 547.0
6.873017756 504.0
6.889729025 550.0
6.906440294 544.0
6.923151563 553.0
6.939862832 546.0
6.956574101 501.0
6.973285370 541.0
6.989996639 503.0
7.006707908 511.0
7.023419176 502.0
7.040130445 531.0
7.056841714 484.0
7.073552983 505.0
7.090264252 494.0
7.106975521 486.0
7.123686790 478.0
7.140398059 472.0
7.157109328 457.0
7.173820597 467.0
7.190531866 464.0
7.207243135 473.0
7.223954404 466.0
7.240665673 441.0
7.257376942 438.0
7.274088211 476.0
7.290799480 464.0
7.307510749 450.0
7.324222018 457.0
7.340933287 428.0
7.357644556 479.0
7.374355825 481.0
7.391067094 463.0
7.407778363 472.0
7.424489632 427.0
7.441200901 398.0
7.457912170 399.0
7.474623439 399.0
7.491334708 429.0
7.508045977 386.0
7.524757246 425.0
7.541468515 394.0
7.558179784 390.0
7.574891053 417.0
7.591602322 418.0
7.608313591 441.0
7.625024860 410.0
7.641736129 391.0
7.658447398 361.0
7.675158667 383.0
7.691869936 449.0
7.708581205 420.0
7.725292474 375.0
7.742003743 401.0
7.758715012 432.0
7.775426281 433.0
7.792137550 384.0
7.808848819 386.0
7.825560087 393.0
7.842271356 418.0
7.858982625 379.0
7.875693894 406.0
7.892405163 380.0
7.909116432 391.0
7.925827701 429.0
7.942538970 404.0
7.959250239 372.0
7.975961508 380.0
7.992672777 392.0
8.009384046 378.0
8.026095315 366.0
8.042806584 369.0
8.059517853 365.0
8.076229122 354.0
8.092940391 390.0
8.109651660 347.0
8.126362929 386.0
8.143074198 387.0
8.159785467 376.0
8.176496736 382.0
8.193208005 410.0
8.209919274 393.0
8.226630543 388.0
8.243341812 427.0
8.260053081 350.0
8.276764350 372.0
8.293475619 404.0
8.310186888 390.0
8.326898157 364.0
8.343609426 387.0
8.360320695 413.0
8.377031964 375.0
8.393743233 373.0
8.410454502 383.0
8.427165771 384.0
8.443877040 368.0
8.460588309 367.0
8.477299578 410.0
8.494010847 398.0
8.510722116 414.0
8.527433385 371.0
8.544144654 407.0
8.560855923 401.0
8.577567192 424.0
8.594278461 397.0
8.610989730 418.0
8.627700998 380.0
8.644412267 372.0
8.661123536 399.0
8.677834805 397.0
8.694546074 400.0
8.711257343 381.0
8.727968612 420.0
8.744679881 404.0
8.761391150 384.0
8.778102419 400.0
8.794813688 421.0
8.811524957 393.0
8.828236226 397.0
8.844947495 402.0
8.861658764 374.0
8.878370033 421.0
8.895081302 392.0
8.911792571 404.0
8.928503840 374.0
8.945215109 351.0
8.961926378 405.0
8.978637647 340.0
8.995348916 374.0
9.012060185 403.0
9.028771454 402.0
9.045482723 383.0
9.062193992 402.0
9.078905261 358.0
9.095616530 374.0
9.112327799 414.0
9.129039068 388.0
9.145750337 365.0
9.162461606 403.0
9.179172875 403.0
9.195884144 372.0
9.212595413 408.0
9.229306682 430.0
9.246017951 392.0
9.262729220 409.0
9.279440489 400.0
9.296151758 432.0
9.312863027 392.0
9.329574296 393.0
9.346285565 437.0
9.362996834 389.0
9.379708103 423.0
9.396419372 391.0
9.413130641 427.0
9.429841909 430.0
9.446553178 385.0
9.463264447 380.0
9.479975716 402.0
9.496686985 403.0
9.513398254 396.0
9.530109523 410.0
9.546820792 435.0
9.563532061 377.0
9.580243330 416.0
9.596954599 405.0
9.613665868 376.0
9.630377137 431.0
9.647088406 433.0
9.663799675 411.0
9.680510944 393.0
9.697222213 393.0
9.713933482 432.0
9.730644751 417.0
9.747356020 436.0
9.764067289 425.0
9.780778558 452.0
9.797489827 440.0
9.814201096 469.0
9.830912365 436.0
9.847623634 422.0
9.864334903 386.0
9.881046172 394.0
9.897757441 428.0
9.914468710 429.0
9.931179979 400.0
9.947891248 385.0
9.964602517 433.0
9.981313786 396.0
9.998025055 435.0
10.014736324 394.0
10.031447593 393.0
10.048158862 377.0
10.064870131 418.0
10.081581400 438.0
10.098292669 412.0
10.115003938 396.0
10.131715207 416.0
10.148426476 424.0
10.165137745 442.0
10.181849014 427.0
10.198560283 458.0
10.215271552 409.0
10.231982820 423.0
10.248694089 462.0
10.265405358 453.0
10.282116627 452.0
10.298827896 433.0
10.315539165 409.0
10.332250434 404.0
10.348961703 431.0
10.365672972 439.0
10.382384241 436.0
10.399095510 439.0
10.415806779 424.0
10.432518048 423.0
10.449229317 422.0
10.465940586 409.0
10.482651855 458.0
10.499363124 414.0
10.516074393 468.0
10.532785662 434.0
10.549496931 431.0
10.566208200 406.0
10.582919469 441.0
10.599630738 442.0
10.616342007 416.0
10.633053276 419.0
10.649764545 440.0
10.666475814 439.0
10.683187083 482.0
10.699898352 421.0
10.716609621 452.0
10.733320890 463.0
10.750032159 452.0
10.766743428 424.0
10.783454697 429.0
10.800165966 448.0
10.816877235 444.0
10.833588504 461.0
10.850299773 438.0
10.867011042 435.0
10.883722311 436.0
10.900433580 426.0
10.917144849 428.0
10.933856118 454.0
10.950567387 432.0
10.967278656 484.0
10.983989925 435.0
11.000701194 392.0
11.017412463 429.0
11.034123731 415.0
11.050835000 442.0
11.067546269 454.0
11.084257538 439.0
11.100968807 444.0
11.117680076 426.0
11.134391345 421.0
11.151102614 467.0
11.167813883 463.0
11.184525152 410.0
11.201236421 435.0
11.217947690 399.0
11.234658959 410.0
11.251370228 412.0
11.268081497 443.0
11.284792766 495.0
11.301504035 467.0
11.318215304 444.0
11.334926573 449.0
11.351637842 438.0
11.368349111 435.0
11.385060380 443.0
11.401771649 456.0
11.418482918 473.0
11.435194187 471.0
11.451905456 460.0
11.468616725 470.0
11.485327994 470.0
11.502039263 460.0
11.518750532 455.0
11.535461801 442.0
11.552173070 427.0
11.568884339 434.0
11.585595608 482.0
11.602306877 434.0
11.619018146 457.0
11.635729415 488.0
11.652440684 429.0
11.669151953 443.0
11.685863222 435.0
11.702574491 409.0
11.719285760 439.0
11.735997029 478.0
11.752708298 431.0
11.769419567 469.0
11.786130836 437.0
11.802842105 445.0
11.819553374 498.0
11.836264642 493.0
11.852975911 465.0
11.869687180 489.0
11.886398449 460.0
11.903109718 463.0
11.919820987 447.0
11.936532256 467.0
11.953243525 469.0
11.969954794 473.0
11.986666063 492.0
12.003377332 464.0
12.020088601 470.0
12.036799870 512.0
12.053511139 517.0
12.070222408 471.0
12.086933677 506.0
12.103644946 517.0
12.120356215 511.0
12.137067484 491.0
12.153778753 525.0
12.170490022 551.0
12.187201291 556.0
12.203912560 536.0
12.220623829 492.0
12.237335098 445.0
12.254046367 503.0
12.270757636 470.0
12.287468905 466.0
12.304180174 506.0
12.320891443 447.0
12.337602712 447.0
12.354313981 435.0
12.371025250 454.0
12.387736519 465.0
12.404447788 452.0
12.421159057 460.0
12.437870326 452.0
12.454581595 438.0
12.471292864 414.0
12.488004133 428.0
12.504715402 436.0
12.521426671 486.0
12.538137940 451.0
12.554849209 490.0
12.571560478 439.0
12.588271747 434.0
12.604983016 441.0
12.621694285 439.0
12.638405553 427.0
12.655116822 439.0
12.671828091 475.0
12.688539360 497.0
12.705250629 466.0
12.721961898 452.0
12.738673167 445.0
12.755384436 450.0
12.772095705 422.0
12.788806974 415.0
12.805518243 442.0
12.822229512 459.0
12.838940781 453.0
12.855652050 446.0
12.872363319 439.0
12.889074588 432.0
12.905785857 467.0
12.922497126 459.0
12.939208395 460.0
12.955919664 459.0
12.972630933 447.0
12.989342202 431.0
13.006053471 445.0
13.022764740 415.0
13.039476009 438.0
13.056187278 427.0
13.072898547 451.0
13.089609816 437.0
13.106321085 479.0
13.123032354 459.0
13.139743623 426.0
13.156454892 448.0
13.173166161 468.0
13.189877430 417.0
13.206588699 449.0
13.223299968 446.0
13.240011237 464.0
13.256722506 485.0
13.273433775 474.0
13.290145044 447.0
13.306856313 418.0
13.323567582 451.0
13.340278851 513.0
13.356990120 479.0
13.373701389 453.0
13.390412658 457.0
13.407123927 484.0
13.423835196 479.0
13.440546464 462.0
13.457257733 473.0
13.473969002 491.0
13.490680271 494.0
13.507391540 522.0
13.524102809 475.0
13.540814078 531.0
13.557525347 515.0
13.574236616 524.0
13.590947885 572.0
13.607659154 530.0
13.624370423 562.0
13.641081692 488.0
13.657792961 502.0
13.674504230 452.0
13.691215499 466.0
13.707926768 420.0
13.724638037 475.0
13.741349306 472.0
13.758060575 449.0
13.774771844 469.0
13.791483113 444.0
13.808194382 461.0
13.824905651 431.0
13.841616920 420.0
13.858328189 434.0
13.875039458 451.0
13.891750727 453.0
13.908461996 484.0
13.925173265 486.0
13.941884534 438.0
13.958595803 392.0
13.975307072 442.0
13.992018341 476.0
14.008729610 508.0
14.025440879 447.0
14.042152148 437.0
14.058863417 423.0
14.075574686 435.0
14.092285955 451.0
14.108997224 442.0
14.125708493 439.0
14.142419762 445.0
14.159131031 489.0
14.175842300 430.0
14.192553569 429.0
14.209264838 399.0
14.225976107 428.0
14.242687375 448.0
14.259398644 471.0
14.276109913 460.0
14.292821182 485.0
14.309532451 491.0
14.326243720 434.0
14.342954989 442.0
14.359666258 434.0
14.376377527 480.0
14.393088796 468.0
14.409800065 458.0
14.426511334 439.0
14.443222603 441.0
14.459933872 439.0
14.476645141 473.0
14.493356410 459.0
14.510067679 458.0
14.526778948 461.0
14.543490217 491.0
14.560201486 462.0
14.576912755 484.0
14.593624024 464.0
14.610335293 491.0
14.627046562 540.0
14.643757831 531.0
14.660469100 551.0
14.677180369 545.0
14.693891638 510.0
14.710602907 541.0
14.727314176 576.0
14.744025445 650.0
14.760736714 672.0
14.777447983 695.0
14.794159252 756.0
14.810870521 776.0
14.827581790 825.0
14.844293059 834.0
14.861004328 741.0
14.877715597 657.0
14.894426866 597.0
14.911138135 547.0
14.927849404 516.0
14.944560673 494.0
14.961271942 467.0
14.977983211 465.0
14.994694480 451.0
15.011405749 469.0
15.028117018 467.0
15.044828286 471.0
15.061539555 503.0
15.078250824 509.0
15.094962093 491.0
15.111673362 468.0
15.128384631 469.0
15.145095900 458.0
15.161807169 484.0
15.178518438 487.0
15.195229707 509.0
15.211940976 499.0
15.228652245 505.0
15.245363514 483.0
15.262074783 467.0
15.278786052 433.0
15.295497321 446.0
15.312208590 448.0
15.328919859 427.0
15.345631128 453.0
15.362342397 507.0
15.379053666 477.0
15.395764935 439.0
15.412476204 493.0
15.429187473 473.0
15.445898742 467.0
15.462610011 461.0
15.479321280 478.0
15.496032549 468.0
15.512743818 492.0
15.529455087 493.0
15.546166356 486.0
15.562877625 486.0
15.579588894 511.0
15.596300163 479.0
15.613011432 508.0
15.629722701 506.0
15.646433970 431.0
15.663145239 452.0
15.679856508 496.0
15.696567777 453.0
15.713279046 457.0
15.729990315 469.0
15.746701584 490.0
15.763412853 507.0
15.780124122 481.0
15.796835391 462.0
15.813546660 476.0
15.830257929 474.0
15.846969197 474.0
15.863680466 460.0
15.880391735 448.0
15.897103004 461.0
15.913814273 407.0
15.930525542 465.0
15.947236811 454.0
15.963948080 439.0
15.980659349 480.0
15.997370618 449.0
16.014081887 469.0
16.030793156 479.0
16.047504425 454.0
16.064215694 468.0
16.080926963 486.0
16.097638232 485.0
16.114349501 449.0
16.131060770 464.0
16.147772039 488.0
16.164483308 495.0
16.181194577 469.0
16.197905846 472.0
16.214617115 460.0
16.231328384 469.0
16.248039653 435.0
16.264750922 455.0
16.281462191 426.0
16.298173460 469.0
16.314884729 510.0
16.331595998 514.0
16.348307267 476.0
16.365018536 477.0
16.381729805 449.0
16.398441074 427.0
16.415152343 469.0
16.431863612 497.0
16.448574881 461.0
16.465286150 450.0
16.481997419 461.0
16.498708688 472.0
16.515419957 480.0
16.532131226 440.0
16.548842495 458.0
16.565553764 422.0
16.582265033 471.0
16.598976302 468.0
16.615687571 470.0
16.632398840 469.0
16.649110108 473.0
16.665821377 458.0
16.682532646 459.0
16.699243915 451.0
16.715955184 453.0
16.732666453 422.0
16.749377722 453.0
16.766088991 473.0
16.782800260 461.0
16.799511529 474.0
16.816222798 465.0
16.832934067 440.0
16.849645336 448.0
16.866356605 433.0
16.883067874 495.0
16.899779143 457.0
16.916490412 448.0
16.933201681 481.0
16.949912950 454.0
16.966624219 457.0
16.983335488 488.0
17.000046757 495.0
17.016758026 473.0
17.033469295 468.0
17.050180564 448.0
17.066891833 438.0
17.083603102 476.0
17.100314371 465.0
17.117025640 519.0
17.133736909 501.0
17.150448178 447.0
17.167159447 444.0
17.183870716 489.0
17.200581985 452.0
17.217293254 444.0
17.234004523 519.0
17.250715792 494.0
17.267427061 487.0
17.284138330 485.0
17.300849599 496.0
17.317560868 509.0
17.334272137 535.0
17.350983406 525.0
17.367694675 535.0
17.384405944 532.0
17.401117213 507.0
17.417828482 567.0
17.434539751 550.0
17.451251019 564.0
17.467962288 599.0
17.484673557 670.0
17.501384826 631.0
17.518096095 618.0
17.534807364 647.0
17.551518633 613.0
17.568229902 597.0
17.584941171 613.0
17.601652440 580.0
17.618363709 507.0
17.635074978 476.0
17.651786247 489.0
17.668497516 515.0
17.685208785 528.0
17.701920054 544.0
17.718631323 507.0
17.735342592 493.0
17.752053861 532.0
17.768765130 528.0
17.785476399 519.0
17.802187668 493.0
17.818898937 558.0
17.835610206 563.0
17.852321475 560.0
17.869032744 554.0
17.885744013 631.0
17.902455282 640.0
17.919166551 612.0
17.935877820 599.0
17.952589089 607.0
17.969300358 566.0
17.986011627 537.0
18.002722896 504.0
18.019434165 520.0
18.036145434 503.0
18.052856703 478.0
18.069567972 505.0
18.086279241 476.0
18.102990510 455.0
18.119701779 463.0
18.136413048 472.0
18.153124317 499.0
18.169835586 458.0
18.186546855 457.0
18.203258124 465.0
18.219969393 470.0
18.236680662 484.0
18.253391930 449.0
18.270103199 485.0
18.286814468 477.0
18.303525737 479.0
18.320237006 487.0
18.336948275 488.0
18.353659544 463.0
18.370370813 500.0
18.387082082 504.0
18.403793351 477.0
18.420504620 465.0
18.437215889 456.0
18.453927158 468.0
18.470638427 525.0
18.487349696 464.0
18.504060965 478.0
18.520772234 529.0
18.537483503 495.0
18.554194772 505.0
18.570906041 479.0
18.587617310 445.0
18.604328579 495.0
18.621039848 511.0
18.637751117 470.0
18.654462386 514.0
18.671173655 488.0
18.687884924 517.0
18.704596193 477.0
18.721307462 484.0
18.738018731 490.0
18.754730000 486.0
18.771441269 450.0
18.788152538 533.0
18.804863807 516.0
18.821575076 529.0
18.838286345 515.0
18.854997614 527.0
18.871708883 557.0
18.888420152 555.0
18.905131421 559.0
18.921842690 584.0
18.938553959 636.0
18.955265228 650.0
18.971976497 678.0
18.988687766 769.0
19.005399035 772.0
19.022110304 882.0
19.038821573 962.0
19.055532841 1200.0
19.072244110 1329.0
19.088955379 1535.0
19.105666648 1809.0
19.122377917 2076.0
19.139089186 2303.0
19.155800455 2259.0
19.172511724 2145.0
19.189222993 1925.0
19.205934262 1630.0
19.222645531 1346.0
19.239356800 1120.0
19.256068069 912.0
19.272779338 751.0
19.289490607 697.0
19.306201876 652.0
19.322913145 569.0
19.339624414 547.0
19.356335683 513.0
19.373046952 527.0
19.389758221 483.0
19.406469490 491.0
19.423180759 519.0
19.439892028 536.0
19.456603297 465.0
19.473314566 499.0
19.490025835 556.0
19.506737104 477.0
19.523448373 488.0
19.540159642 486.0
19.556870911 496.0
19.573582180 501.0
19.590293449 514.0
19.607004718 507.0
19.623715987 515.0
19.640427256 507.0
19.657138525 486.0
19.673849794 531.0
19.690561063 504.0
19.707272332 540.0
19.723983601 493.0
19.740694870 514.0
19.757406139 536.0
19.774117408 516.0
19.790828677 517.0
19.807539946 482.0
19.824251215 514.0
19.840962484 518.0
19.857673752 550.0
19.874385021 602.0
19.891096290 588.0
19.907807559 646.0
19.924518828 621.0
19.941230097 645.0
19.957941366 694.0
19.974652635 643.0
19.991363904 652.0
20.008075173 677.0
20.024786442 681.0
20.041497711 670.0
20.058208980 698.0
20.074920249 772.0
20.091631518 812.0
20.108342787 843.0
20.125054056 945.0
20.141765325 1041.0
20.158476594 1216.0
20.175187863 1474.0
20.191899132 1779.0
20.208610401 2122.0
20.225321670 2541.0
20.242032939 3014.0
20.258744208 3176.0
20.275455477 3218.0
20.292166746 3141.0
20.308878015 2847.0
20.325589284 2586.0
20.342300553 2388.0
20.359011822 2155.0
20.375723091 1941.0
20.392434360 1958.0
20.409145629 1806.0
20.425856898 1590.0
20.442568167 1429.0
20.459279436 1199.0
20.475990705 1024.0
20.492701974 863.0
20.509413243 706.0
20.526124512 653.0
20.542835781 622.0
20.559547050 621.0
20.576258319 615.0
20.592969588 587.0
20.609680857 530.0
20.626392126 557.0
20.643103395 559.0
20.659814663 535.0
20.676525932 536.0
20.693237201 522.0
20.709948470 552.0
20.726659739 549.0
20.743371008 487.0
20.760082277 465.0
20.776793546 494.0
20.793504815 495.0
20.810216084 508.0
20.826927353 545.0
20.843638622 452.0
20.860349891 477.0
20.877061160 469.0
20.893772429 484.0
20.910483698 470.0
20.927194967 503.0
20.943906236 500.0
20.960617505 521.0
20.977328774 510.0
20.994040043 495.0
21.010751312 493.0
21.027462581 454.0
21.044173850 498.0
21.060885119 490.0
21.077596388 513.0
21.094307657 526.0
21.111018926 495.0
21.127730195 500.0
21.144441464 482.0
21.161152733 490.0
21.177864002 499.0
21.194575271 515.0
21.211286540 496.0
21.227997809 467.0
21.244709078 491.0
21.261420347 473.0
21.278131616 504.0
21.294842885 482.0
21.311554154 592.0
21.328265423 491.0
21.344976692 536.0
21.361687961 565.0
21.378399230 570.0
21.395110499 539.0
21.411821768 544.0
21.428533037 498.0
21.445244306 477.0
21.461955574 496.0
21.478666843 483.0
21.495378112 553.0
21.512089381 519.0
21.528800650 479.0
21.545511919 535.0
21.562223188 498.0
21.578934457 476.0
21.595645726 453.0
21.612356995 476.0
21.629068264 451.0
21.645779533 493.0
21.662490802 490.0
21.679202071 506.0
21.695913340 485.0
21.712624609 464.0
21.729335878 456.0
21.746047147 459.0
21.762758416 474.0
21.779469685 462.0
21.796180954 488.0
21.812892223 508.0
21.829603492 484.0
21.846314761 524.0
21.863026030 528.0
21.879737299 508.0
21.896448568 486.0
21.913159837 483.0
21.929871106 486.0
21.946582375 498.0
21.963293644 503.0
21.980004913 497.0
21.996716182 485.0
22.013427451 486.0
22.030138720 467.0
22.046849989 505.0
22.063561258 461.0
22.080272527 510.0
22.096983796 450.0
22.113695065 450.0
22.130406334 518.0
22.147117603 460.0
22.163828872 510.0
22.180540141 565.0
22.197251410 542.0
22.213962679 533.0
22.230673948 540.0
22.247385217 560.0
22.264096485 552.0
22.280807754 579.0
22.297519023 604.0
22.314230292 676.0
22.330941561 695.0
22.347652830 772.0
22.364364099 786.0
22.381075368 899.0
22.397786637 921.0
22.414497906 937.0
22.431209175 888.0
22.447920444 851.0
22.464631713 814.0
22.481342982 738.0
22.498054251 726.0
22.514765520 645.0
22.531476789 613.0
22.548188058 608.0
22.564899327 608.0
22.581610596 571.0
22.598321865 606.0
22.615033134 584.0
22.631744403 570.0
22.648455672 581.0
22.665166941 580.0
22.681878210 588.0
22.698589479 619.0
22.715300748 603.0
22.732012017 627.0
22.748723286 625.0
22.765434555 587.0
22.782145824 559.0
22.798857093 620.0
22.815568362 634.0
22.832279631 638.0
22.848990900 675.0
22.865702169 746.0
22.882413438 731.0
22.899124707 840.0
22.915835976 853.0
22.932547245 909.0
22.949258514 984.0
22.965969783 1054.0
22.982681052 1162.0
22.999392321 1147.0
23.016103590 1266.0
23.032814859 1343.0
23.049526128 1361.0
23.066237396 1186.0
23.082948665 1165.0
23.099659934 1125.0
23.116371203 1009.0
23.133082472 878.0
23.149793741 807.0
23.166505010 824.0
23.183216279 830.0
23.199927548 823.0
23.216638817 942.0
23.233350086 942.0
23.250061355 1056.0
23.266772624 1080.0
23.283483893 1271.0
23.300195162 1417.0
23.316906431 1642.0
23.333617700 1946.0
23.350328969 2263.0
23.367040238 2714.0
23.383751507 3103.0
23.400462776 3677.0
23.417174045 4311.0
23.433885314 4602.0
23.450596583 4658.0
23.467307852 4371.0
23.484019121 4115.0
23.500730390 3327.0
23.517441659 2798.0
23.534152928 2125.0
23.550864197 1754.0
23.567575466 1298.0
23.584286735 1146.0
23.600998004 1011.0
23.617709273 961.0
23.634420542 891.0
23.651131811 859.0
23.667843080 788.0
23.684554349 764.0
23.701265618 727.0
23.717976887 664.0
23.734688156 634.0
23.751399425 623.0
23.768110694 589.0
23.784821963 614.0
23.801533232 634.0
23.818244501 545.0
23.834955770 559.0
23.851667039 565.0
23.868378307 541.0
23.885089576 526.0
23.901800845 569.0
23.918512114 521.0
23.935223383 560.0
23.951934652 525.0
23.968645921 494.0
23.985357190 500.0
24.002068459 555.0
24.018779728 589.0
24.035490997 607.0
24.052202266 585.0
24.068913535 630.0
24.085624804 653.0
24.102336073 669.0
24.119047342 723.0
24.135758611 689.0
24.152469880 677.0
24.169181149 652.0
24.185892418 608.0
24.202603687 605.0
24.219314956 565.0
24.236026225 523.0
24.252737494 522.0
24.269448763 499.0
24.286160032 530.0
24.302871301 533.0
24.319582570 557.0
24.336293839 525.0
24.353005108 542.0
24.369716377 543.0
24.386427646 535.0
24.403138915 500.0
24.419850184 522.0
24.436561453 504.0
24.453272722 552.0
24.469983991 523.0
24.486695260 524.0
24.503406529 527.0
24.520117798 479.0
24.536829067 526.0
24.553540336 505.0
24.570251605 486.0
24.586962874 496.0
24.603674143 488.0
24.620385412 487.0
24.637096681 473.0
24.653807950 465.0
24.670519218 493.0
24.687230487 491.0
24.703941756 488.0
24.720653025 514.0
24.737364294 511.0
24.754075563 500.0
24.770786832 454.0
24.787498101 516.0
24.804209370 464.0
24.820920639 500.0
24.837631908 486.0
24.854343177 487.0
24.871054446 467.0
24.887765715 470.0
24.904476984 465.0
24.921188253 484.0
24.937899522 470.0
24.954610791 486.0
24.971322060 482.0
24.988033329 462.0
25.004744598 433.0
25.021455867 488.0
25.038167136 500.0
25.054878405 477.0
25.071589674 489.0
25.088300943 495.0
25.105012212 483.0
25.121723481 471.0
25.138434750 504.0
25.155146019 503.0
25.171857288 504.0
25.188568557 492.0
25.205279826 507.0
25.221991095 528.0
25.238702364 473.0
25.255413633 471.0
25.272124902 518.0
25.288836171 531.0
25.305547440 532.0
25.322258709 456.0
25.338969978 471.0
25.355681247 486.0
25.372392516 500.0
25.389103785 507.0
25.405815054 522.0
25.422526323 455.0
25.439237592 484.0
25.455948861 444.0
25.472660129 504.0
25.489371398 493.0
25.506082667 521.0
25.522793936 493.0
25.539505205 511.0
25.556216474 509.0
25.572927743 460.0
25.589639012 487.0
25.606350281 470.0
25.623061550 492.0
25.639772819 463.0
25.656484088 483.0
25.673195357 441.0
25.689906626 470.0
25.706617895 467.0
25.723329164 455.0
25.740040433 485.0
25.756751702 468.0
25.773462971 520.0
25.790174240 468.0
25.806885509 460.0
25.823596778 444.0
25.840308047 479.0
25.857019316 460.0
25.873730585 525.0
25.890441854 510.0
25.907153123 469.0
25.923864392 454.0
25.940575661 440.0
25.957286930 463.0
25.973998199 504.0
25.990709468 460.0
26.007420737 443.0
26.024132006 458.0
26.040843275 431.0
26.057554544 454.0
26.074265813 481.0
26.090977082 457.0
26.107688351 489.0
26.124399620 470.0
26.141110889 491.0
26.157822158 523.0
26.174533427 507.0
26.191244696 485.0
26.207955965 471.0
26.224667234 451.0
26.241378503 502.0
26.258089772 502.0
26.274801040 480.0
26.291512309 485.0
26.308223578 482.0
26.324934847 482.0
26.341646116 459.0
26.358357385 520.0
26.375068654 495.0
26.391779923 512.0
26.408491192 421.0
26.425202461 453.0
26.441913730 431.0
26.458624999 453.0
26.475336268 461.0
26.492047537 432.0
26.508758806 466.0
26.525470075 478.0
26.542181344 475.0
26.558892613 458.0
26.575603882 500.0
26.592315151 476.0
26.609026420 520.0
26.625737689 465.0
26.642448958 496.0
26.659160227 491.0
26.675871496 474.0
26.692582765 451.0
26.709294034 499.0
26.726005303 521.0
26.742716572 560.0
26.759427841 568.0
26.776139110 576.0
26.792850379 559.0
26.809561648 647.0
26.826272917 633.0
26.842984186 653.0
26.859695455 709.0
26.876406724 731.0
26.893117993 724.0
26.909829262 773.0
26.926540531 869.0
26.943251800 905.0
26.959963069 954.0
26.976674338 1143.0
26.993385607 1227.0
27.010096876 1413.0
27.026808145 1681.0
27.043519414 1939.0
27.060230683 2215.0
27.076941951 2444.0
27.093653220 2412.0
27.110364489 2348.0
27.127075758 1973.0
27.143787027 1888.0
27.160498296 1510.0
27.177209565 1314.0
27.193920834 1083.0
27.210632103 983.0
27.227343372 759.0
27.244054641 704.0
27.260765910 655.0
27.277477179 604.0
27.294188448 585.0
27.310899717 549.0
27.327610986 505.0
27.344322255 515.0
27.361033524 486.0
27.377744793 522.0
27.394456062 439.0
27.411167331 557.0
27.427878600 462.0
27.444589869 514.0
27.461301138 497.0
27.478012407 456.0
27.494723676 512.0
27.511434945 437.0
27.528146214 479.0
27.544857483 488.0
27.561568752 488.0
27.578280021 451.0
27.594991290 504.0
27.611702559 476.0
27.628413828 492.0
27.645125097 458.0
27.661836366 416.0
27.678547635 458.0
27.695258904 514.0
27.711970173 448.0
27.728681442 498.0
27.745392711 542.0
27.762103980 511.0
27.778815249 489.0
27.795526518 477.0
27.812237787 489.0
27.828949056 509.0
27.845660325 468.0
27.862371594 520.0
27.879082862 538.0
27.895794131 516.0
27.912505400 507.0
27.929216669 551.0
27.945927938 533.0
27.962639207 525.0
27.979350476 498.0
27.996061745 508.0
28.012773014 519.0
28.029484283 521.0
28.046195552 520.0
28.062906821 506.0
28.079618090 481.0
28.096329359 505.0
28.113040628 508.0
28.129751897 530.0
28.146463166 529.0
28.163174435 546.0
28.179885704 486.0
28.196596973 531.0
28.213308242 527.0
28.230019511 569.0
28.246730780 602.0
28.263442049 612.0
28.280153318 575.0
28.296864587 575.0
28.313575856 577.0
28.330287125 653.0
28.346998394 622.0
28.363709663 634.0
28.380420932 690.0
28.397132201 682.0
28.413843470 779.0
28.430554739 796.0
28.447266008 801.0
28.463977277 903.0
28.480688546 933.0
28.497399815 1017.0
28.514111084 1133.0
28.530822353 1263.0
28.547533622 1374.0
28.564244891 1544.0
28.580956160 1702.0
28.597667429 1853.0
28.614378698 2129.0
28.631089967 2453.0
28.647801236 2837.0
28.664512505 3376.0
28.681223773 3809.0
28.697935042 4123.0
28.714646311 3926.0
28.731357580 3632.0
28.748068849 3369.0
28.764780118 3020.0
28.781491387 2694.0
28.798202656 2262.0
28.814913925 1955.0
28.831625194 1625.0
28.848336463 1441.0
28.865047732 1381.0
28.881759001 1186.0
28.898470270 1080.0
28.915181539 1061.0
28.931892808 985.0
28.948604077 1008.0
28.965315346 906.0
28.982026615 891.0
28.998737884 904.0
29.015449153 873.0
29.032160422 790.0
29.048871691 761.0
29.065582960 745.0
29.082294229 754.0
29.099005498 772.0
29.115716767 741.0
29.132428036 742.0
29.149139305 791.0
29.165850574 827.0
29.182561843 822.0
29.199273112 904.0
29.215984381 873.0
29.232695650 935.0
29.249406919 912.0
29.266118188 917.0
29.282829457 922.0
29.299540726 906.0
29.316251995 895.0
29.332963264 945.0
29.349674533 1016.0
29.366385802 1027.0
29.383097071 1088.0
29.399808340 1179.0
29.416519609 1344.0
29.433230878 1372.0
29.449942147 1682.0
29.466653416 1733.0
29.483364684 2056.0
29.500075953 2555.0
29.516787222 2904.0
29.533498491 3527.0
29.550209760 3884.0
29.566921029 4591.0
29.583632298 4683.0
29.600343567 4475.0
29.617054836 4021.0
29.633766105 3574.0
29.650477374 3307.0
29.667188643 2995.0
29.683899912 2473.0
29.700611181 1976.0
29.717322450 1617.0
29.734033719 1367.0
29.750744988 1261.0
29.767456257 1122.0
29.784167526 1077.0
29.800878795 1014.0
29.817590064 921.0
29.834301333 900.0
29.851012602 886.0
29.867723871 901.0
29.884435140 884.0
29.901146409 871.0
29.917857678 864.0
29.934568947 847.0
29.951280216 845.0
29.967991485 901.0
29.984702754 925.0
30.001414023 895.0
30.018125292 1015.0
30.034836561 1051.0
30.051547830 1091.0
30.068259099 1174.0
30.084970368 1296.0
30.101681637 1367.0
30.118392906 1556.0
30.135104175 1748.0
30.151815444 1976.0
30.168526713 2163.0
30.185237982 2577.0
30.201949251 2952.0
30.218660520 3327.0
30.235371789 3361.0
30.252083058 3159.0
30.268794327 2807.0
30.285505595 2797.0
30.302216864 2514.0
30.318928133 2261.0
30.335639402 1902.0
30.352350671 1682.0
30.369061940 1388.0
30.385773209 1305.0
30.402484478 1083.0
30.419195747 944.0
30.435907016 883.0
30.452618285 800.0
30.469329554 777.0
30.486040823 714.0
30.502752092 658.0
30.519463361 635.0
30.536174630 651.0
30.552885899 616.0
30.569597168 622.0
30.586308437 573.0
30.603019706 561.0
30.619730975 530.0
30.636442244 558.0
30.653153513 523.0
30.669864782 539.0
30.686576051 599.0
30.703287320 624.0
30.719998589 576.0
30.736709858 609.0
30.753421127 594.0
30.770132396 605.0
30.786843665 604.0
30.803554934 671.0
30.820266203 737.0
30.836977472 848.0
30.853688741 802.0
30.870400010 787.0
30.887111279 745.0
30.903822548 708.0
30.920533817 718.0
30.937245086 742.0
30.953956355 658.0
30.970667624 631.0
30.987378893 557.0
31.004090162 547.0
31.020801431 563.0
31.037512700 523.0
31.054223969 569.0
31.070935238 547.0
31.087646506 522.0
31.104357775 559.0
31.121069044 522.0
31.137780313 577.0
31.154491582 573.0
31.171202851 516.0
31.187914120 458.0
31.204625389 516.0
31.221336658 447.0
31.238047927 497.0
31.254759196 501.0
31.271470465 500.0
31.288181734 507.0
31.304893003 488.0
31.321604272 415.0
31.338315541 516.0
31.355026810 465.0
31.371738079 505.0
31.388449348 469.0
31.405160617 456.0
31.421871886 438.0
31.438583155 439.0
31.455294424 494.0
31.472005693 427.0
31.488716962 487.0
31.505428231 493.0
31.522139500 454.0
31.538850769 512.0
31.555562038 456.0
31.572273307 455.0
31.588984576 429.0
31.605695845 416.0
31.622407114 457.0
31.639118383 490.0
31.655829652 452.0
31.672540921 420.0
31.689252190 457.0
31.705963459 481.0
31.722674728 457.0
31.739385997 469.0
31.756097266 495.0
31.772808535 496.0
31.789519804 479.0
31.806231073 481.0
31.822942342 475.0
31.839653611 511.0
31.856364880 509.0
31.873076149 471.0
31.889787417 480.0
31.906498686 485.0
31.923209955 486.0
31.939921224 445.0
31.956632493 471.0
31.973343762 460.0
31.990055031 483.0
32.006766300 432.0
32.023477569 500.0
32.040188838 487.0
32.056900107 452.0
32.073611376 466.0
32.090322645 467.0
32.107033914 456.0
32.123745183 428.0
32.140456452 459.0
32.157167721 488.0
32.173878990 476.0
32.190590259 449.0
32.207301528 474.0
32.224012797 476.0
32.240724066 484.0
32.257435335 482.0
32.274146604 466.0
32.290857873 473.0
32.307569142 520.0
32.324280411 486.0
32.340991680 500.0
32.357702949 518.0
32.374414218 494.0
32.391125487 446.0
32.407836756 451.0
32.424548025 448.0
32.441259294 450.0
32.457970563 503.0
32.474681832 531.0
32.491393101 500.0
32.508104370 489.0
32.524815639 468.0
32.541526908 524.0
32.558238177 530.0
32.574949446 501.0
32.591660715 507.0
32.608371984 495.0
32.625083253 488.0
32.641794522 477.0
32.658505791 514.0
32.675217060 484.0
32.691928328 499.0
32.708639597 476.0
32.725350866 465.0
32.742062135 464.0
32.758773404 476.0
32.775484673 488.0
32.792195942 481.0
32.808907211 455.0
32.825618480 438.0
32.842329749 469.0
32.859041018 506.0
32.875752287 487.0
32.892463556 485.0
32.909174825 476.0
32.925886094 501.0
32.942597363 490.0
32.959308632 512.0
32.976019901 514.0
32.992731170 525.0
33.009442439 571.0
33.026153708 552.0
33.042864977 535.0
33.059576246 577.0
33.076287515 580.0
33.092998784 664.0
33.109710053 745.0
33.126421322 771.0
33.143132591 809.0
33.159843860 1014.0
33.176555129 1188.0
33.193266398 1434.0
33.209977667 1673.0
33.226688936 2102.0
33.243400205 2462.0
33.260111474 2577.0
33.276822743 2385.0
33.293534012 2184.0
33.310245281 1891.0
33.326956550 1675.0
33.343667819 1597.0
33.360379088 1339.0
33.377090357 1073.0
33.393801626 947.0
33.410512895 731.0
33.427224164 665.0
33.443935433 633.0
33.460646702 598.0
33.477357971 590.0
33.494069239 533.0
33.510780508 569.0
33.527491777 523.0
33.544203046 523.0
33.560914315 566.0
33.577625584 490.0
33.594336853 478.0
33.611048122 533.0
33.627759391 520.0
33.644470660 491.0
33.661181929 468.0
33.677893198 551.0
33.694604467 553.0
33.711315736 590.0
33.728027005 521.0
33.744738274 582.0
33.761449543 573.0
33.778160812 535.0
33.794872081 547.0
33.811583350 573.0
33.828294619 592.0
33.845005888 586.0
33.861717157 569.0
33.878428426 550.0
33.895139695 545.0
33.911850964 596.0
33.928562233 594.0
33.945273502 527.0
33.961984771 528.0
33.978696040 516.0
33.995407309 559.0
34.012118578 509.0
34.028829847 525.0
34.045541116 533.0
34.062252385 517.0
34.078963654 481.0
34.095674923 548.0
34.112386192 556.0
34.129097461 567.0
34.145808730 602.0
34.162519999 707.0
34.179231268 723.0
34.195942537 830.0
34.212653806 865.0
34.229365075 781.0
34.246076344 750.0
34.262787613 688.0
34.279498882 747.0
34.296210150 702.0
34.312921419 684.0
34.329632688 690.0
34.346343957 619.0
34.363055226 573.0
34.379766495 527.0
34.396477764 557.0
34.413189033 540.0
34.429900302 541.0
34.446611571 549.0
34.463322840 525.0
34.480034109 526.0
34.496745378 522.0
34.513456647 537.0
34.530167916 484.0
34.546879185 513.0
34.563590454 486.0
34.580301723 508.0
34.597012992 493.0
34.613724261 469.0
34.630435530 472.0
34.647146799 488.0
34.663858068 465.0
34.680569337 469.0
34.697280606 438.0
34.713991875 439.0
34.730703144 476.0
34.747414413 505.0
34.764125682 502.0
34.780836951 505.0
34.797548220 516.0
34.814259489 502.0
34.830970758 508.0
34.847682027 536.0
34.864393296 525.0
34.881104565 532.0
34.897815834 577.0
34.914527103 547.0
34.931238372 575.0
34.947949641 553.0
34.964660910 598.0
34.981372179 678.0
34.998083448 740.0
35.014794717 826.0
35.031505986 928.0
35.048217255 1089.0
35.064928524 1189.0
35.081639793 1401.0
35.098351061 1466.0
35.115062330 1662.0
35.131773599 1722.0
35.148484868 1689.0
35.165196137 1717.0
35.181907406 1752.0
35.198618675 1832.0
35.215329944 1770.0
35.232041213 1826.0
35.248752482 1830.0
35.265463751 2088.0
35.282175020 2188.0
35.298886289 2264.0
35.315597558 2439.0
35.332308827 2660.0
35.349020096 2924.0
35.365731365 3004.0
35.382442634 3162.0
35.399153903 3241.0
35.415865172 3183.0
35.432576441 3037.0
35.449287710 2604.0
35.465998979 2268.0
35.482710248 2135.0
35.499421517 1794.0
35.516132786 1674.0
35.532844055 1388.0
35.549555324 1128.0
35.566266593 917.0
35.582977862 843.0
35.599689131 834.0
35.616400400 763.0
35.633111669 665.0
35.649822938 674.0
35.666534207 645.0
35.683245476 613.0
35.699956745 578.0
35.716668014 601.0
35.733379283 599.0
35.750090552 554.0
35.766801821 598.0
35.783513090 575.0
35.800224359 558.0
35.816935628 591.0
35.833646897 640.0
35.850358166 606.0
35.867069435 689.0
35.883780704 674.0
35.900491972 688.0
35.917203241 729.0
35.933914510 789.0
35.950625779 881.0
35.967337048 958.0
35.984048317 913.0
36.000759586 916.0
36.017470855 921.0
36.034182124 860.0
36.050893393 836.0
36.067604662 772.0
36.084315931 737.0
36.101027200 745.0
36.117738469 637.0
36.134449738 657.0
36.151161007 619.0
36.167872276 594.0
36.184583545 595.0
36.201294814 543.0
36.218006083 552.0
36.234717352 551.0
36.251428621 539.0
36.268139890 586.0
36.284851159 549.0
36.301562428 527.0
36.318273697 509.0
36.334984966 525.0
36.351696235 509.0
36.368407504 509.0
36.385118773 547.0
36.401830042 523.0
36.418541311 550.0
36.435252580 566.0
36.451963849 544.0
36.468675118 528.0
36.485386387 576.0
36.502097656 617.0
36.518808925 670.0
36.535520194 684.0
36.552231463 699.0
36.568942732 760.0
36.585654001 732.0
36.602365270 840.0
36.619076539 815.0
36.635787808 865.0
36.652499077 801.0
36.669210346 881.0
36.685921615 863.0
36.702632883 940.0
36.719344152 890.0
36.736055421 840.0
36.752766690 839.0
36.769477959 815.0
36.786189228 810.0
36.802900497 738.0
36.819611766 771.0
36.836323035 707.0
36.853034304 695.0
36.869745573 701.0
36.886456842 610.0
36.903168111 608.0
36.919879380 609.0
36.936590649 564.0
36.953301918 562.0
36.970013187 618.0
36.986724456 580.0
37.003435725 561.0
37.020146994 582.0
37.036858263 566.0
37.053569532 541.0
37.070280801 588.0
37.086992070 601.0
37.103703339 649.0
37.120414608 648.0
37.137125877 657.0
37.153837146 727.0
37.170548415 772.0
37.187259684 816.0
37.203970953 877.0
37.220682222 950.0
37.237393491 905.0
37.254104760 893.0
37.270816029 981.0
37.287527298 926.0
37.304238567 940.0
37.320949836 962.0
37.337661105 997.0
37.354372374 985.0
37.371083643 929.0
37.387794912 941.0
37.404506181 898.0
37.421217450 901.0
37.437928719 889.0
37.454639988 839.0
37.471351257 817.0
37.488062526 821.0
37.504773794 808.0
37.521485063 872.0
37.538196332 804.0
37.554907601 832.0
37.571618870 831.0
37.588330139 819.0
37.605041408 781.0
37.621752677 819.0
37.638463946 852.0
37.655175215 823.0
37.671886484 801.0
37.688597753 681.0
37.705309022 693.0
37.722020291 674.0
37.738731560 669.0
37.755442829 620.0
37.772154098 548.0
37.788865367 574.0
37.805576636 575.0
37.822287905 563.0
37.838999174 558.0
37.855710443 514.0
37.872421712 538.0
37.889132981 507.0
37.905844250 504.0
37.922555519 449.0
37.939266788 518.0
37.955978057 530.0
37.972689326 515.0
37.989400595 516.0
38.006111864 484.0
38.022823133 538.0
38.039534402 550.0
38.056245671 496.0
38.072956940 498.0
38.089668209 559.0
38.106379478 529.0
38.123090747 538.0
38.139802016 579.0
38.156513285 601.0
38.173224554 581.0
38.189935823 613.0
38.206647092 591.0
38.223358361 616.0
38.240069630 616.0
38.256780899 592.0
38.273492168 630.0
38.290203437 627.0
38.306914705 643.0
38.323625974 630.0
38.340337243 652.0
38.357048512 693.0
38.373759781 718.0
38.390471050 683.0
38.407182319 755.0
38.423893588 809.0
38.440604857 902.0
38.457316126 936.0
38.474027395 1015.0
38.490738664 1071.0
38.507449933 1011.0
38.524161202 977.0
38.540872471 1049.0
38.557583740 951.0
38.574295009 922.0
38.591006278 880.0
38.607717547 874.0
38.624428816 858.0
38.641140085 764.0
38.657851354 739.0
38.674562623 708.0
38.691273892 726.0
38.707985161 705.0
38.724696430 662.0
38.741407699 673.0
38.758118968 612.0
38.774830237 651.0
38.791541506 589.0
38.808252775 576.0
38.824964044 617.0
38.841675313 584.0
38.858386582 594.0
38.875097851 621.0
38.891809120 597.0
38.908520389 566.0
38.925231658 594.0
38.941942927 558.0
38.958654196 572.0
38.975365465 558.0
38.992076734 550.0
39.008788003 561.0
39.025499272 627.0
39.042210541 595.0
39.058921810 622.0
39.075633079 627.0
39.092344348 597.0
39.109055616 608.0
39.125766885 621.0
39.142478154 649.0
39.159189423 607.0
39.175900692 547.0
39.192611961 558.0
39.209323230 562.0
39.226034499 559.0
39.242745768 589.0
39.259457037 545.0
39.276168306 571.0
39.292879575 574.0
39.309590844 556.0
39.326302113 521.0
39.343013382 498.0
39.359724651 518.0
39.376435920 498.0
39.393147189 495.0
39.409858458 500.0
39.426569727 461.0
39.443280996 462.0
39.459992265 481.0
39.476703534 514.0
39.493414803 470.0
39.510126072 410.0
39.526837341 456.0
39.543548610 497.0
39.560259879 473.0
39.576971148 451.0
39.593682417 473.0
39.610393686 453.0
39.627104955 471.0
39.643816224 457.0
39.660527493 444.0
39.677238762 455.0
39.693950031 483.0
39.710661300 508.0
39.727372569 486.0
39.744083838 410.0
39.760795107 433.0
39.777506376 442.0
39.794217645 423.0
39.810928914 483.0
39.827640183 463.0
39.844351452 465.0
39.861062721 490.0
39.877773990 488.0
39.894485259 471.0
39.911196527 423.0
39.927907796 427.0
39.944619065 461.0
39.961330334 453.0
39.978041603 455.0
39.994752872 471.0
40.011464141 463.0
40.028175410 458.0
40.044886679 457.0
40.061597948 488.0
40.078309217 490.0
40.095020486 492.0
40.111731755 509.0
40.128443024 528.0
40.145154293 551.0
40.161865562 557.0
40.178576831 536.0
40.195288100 534.0
40.211999369 526.0
40.228710638 548.0
40.245421907 526.0
40.262133176 527.0
40.278844445 575.0
40.295555714 546.0
40.312266983 553.0
40.328978252 536.0
40.345689521 532.0
40.362400790 516.0
40.379112059 547.0
40.395823328 522.0
40.412534597 536.0
40.429245866 564.0
40.445957135 543.0
40.462668404 534.0
40.479379673 524.0
40.496090942 521.0
40.512802211 543.0
40.529513480 549.0
40.546224749 546.0
40.562936018 553.0
40.579647287 576.0
40.596358556 519.0
40.613069825 590.0
40.629781094 570.0
40.646492363 578.0
40.663203632 605.0
40.679914901 623.0
40.696626170 669.0
40.713337438 697.0
40.730048707 817.0
40.746759976 930.0
40.763471245 1013.0
40.780182514 1075.0
40.796893783 1240.0
40.813605052 1435.0
40.830316321 1620.0
40.847027590 1708.0
40.863738859 1856.0
40.880450128 1978.0
40.897161397 2136.0
40.913872666 2257.0
40.930583935 2394.0
40.947295204 2390.0
40.964006473 2487.0
40.980717742 2425.0
40.997429011 2285.0
41.014140280 2376.0
41.030851549 2140.0
41.047562818 2057.0
41.064274087 1895.0
41.080985356 1837.0
41.097696625 1659.0
41.114407894 1502.0
41.131119163 1417.0
41.147830432 1290.0
41.164541701 1282.0
41.181252970 1159.0
41.197964239 1130.0
41.214675508 983.0
41.231386777 907.0
41.248098046 858.0
41.264809315 824.0
41.281520584 858.0
41.298231853 887.0
41.314943122 850.0
41.331654391 880.0
41.348365660 875.0
41.365076929 901.0
41.381788198 955.0
41.398499467 899.0
41.415210736 910.0
41.431922005 859.0
41.448633274 859.0
41.465344543 851.0
41.482055812 834.0
41.498767081 915.0
41.515478349 898.0
41.532189618 818.0
41.548900887 800.0
41.565612156 806.0
41.582323425 810.0
41.599034694 807.0
41.615745963 794.0
41.632457232 776.0
41.649168501 715.0
41.665879770 756.0
41.682591039 761.0
41.699302308 701.0
41.716013577 725.0
41.732724846 653.0
41.749436115 641.0
41.766147384 664.0
41.782858653 560.0
41.799569922 581.0
41.816281191 580.0
41.832992460 604.0
41.849703729 603.0
41.866414998 586.0
41.883126267 567.0
41.899837536 608.0
41.916548805 572.0
41.933260074 566.0
41.949971343 621.0
41.966682612 594.0
41.983393881 621.0
42.000105150 619.0
42.016816419 651.0
42.033527688 683.0
42.050238957 685.0
42.066950226 802.0
42.083661495 848.0
42.100372764 939.0
42.117084033 946.0
42.133795302 987.0
42.150506571 1010.0
42.167217840 952.0
42.183929109 980.0
42.200640378 939.0
42.217351647 954.0
42.234062916 868.0
42.250774185 855.0
42.267485454 810.0
42.284196723 745.0
42.300907992 767.0
42.317619260 699.0
42.334330529 670.0
42.351041798 625.0
42.367753067 658.0
42.384464336 606.0
42.401175605 655.0
42.417886874 655.0
42.434598143 642.0
42.451309412 709.0
42.468020681 677.0
42.484731950 619.0
42.501443219 669.0
42.518154488 652.0
42.534865757 636.0
42.551577026 594.0
42.568288295 639.0
42.584999564 623.0
42.601710833 561.0
42.618422102 641.0
42.635133371 558.0
42.651844640 561.0
42.668555909 519.0
42.685267178 542.0
42.701978447 529.0
42.718689716 551.0
42.735400985 471.0
42.752112254 478.0
42.768823523 494.0
42.785534792 506.0
42.802246061 526.0
42.818957330 517.0
42.835668599 494.0
42.852379868 499.0
42.869091137 505.0
42.885802406 549.0
42.902513675 531.0
42.919224944 534.0
42.935936213 544.0
42.952647482 514.0
42.969358751 560.0
42.986070020 570.0
43.002781289 576.0
43.019492558 600.0
43.036203827 637.0
43.052915096 716.0
43.069626365 735.0
43.086337634 791.0
43.103048903 935.0
43.119760171 1040.0
43.136471440 1181.0
43.153182709 1364.0
43.169893978 1475.0
43.186605247 1563.0
43.203316516 1478.0
43.220027785 1308.0
43.236739054 1218.0
43.253450323 1140.0
43.270161592 1257.0
43.286872861 1193.0
43.303584130 1109.0
43.320295399 1012.0
43.337006668 897.0
43.353717937 845.0
43.370429206 688.0
43.387140475 709.0
43.403851744 641.0
43.420563013 666.0
43.437274282 565.0
43.453985551 512.0
43.470696820 556.0
43.487408089 547.0
43.504119358 504.0
43.520830627 486.0
43.537541896 438.0
43.554253165 477.0
43.570964434 490.0
43.587675703 469.0
43.604386972 482.0
43.621098241 451.0
43.637809510 444.0
43.654520779 436.0
43.671232048 478.0
43.687943317 476.0
43.704654586 495.0
43.721365855 471.0
43.738077124 490.0
43.754788393 516.0
43.771499662 491.0
43.788210931 534.0
43.804922200 538.0
43.821633469 460.0
43.838344738 508.0
43.855056007 483.0
43.871767276 513.0
43.888478545 506.0
43.905189814 504.0
43.921901082 533.0
43.938612351 489.0
43.955323620 482.0
43.972034889 526.0
43.988746158 494.0
44.005457427 489.0
44.022168696 499.0
44.038879965 486.0
44.055591234 475.0
44.072302503 471.0
44.089013772 479.0
44.105725041 466.0
44.122436310 464.0
44.139147579 441.0
44.155858848 457.0
44.172570117 487.0
44.189281386 492.0
44.205992655 488.0
44.222703924 478.0
44.239415193 494.0
44.256126462 517.0
44.272837731 477.0
44.289549000 429.0
44.306260269 449.0
44.322971538 418.0
44.339682807 477.0
44.356394076 492.0
44.373105345 452.0
44.389816614 497.0
44.406527883 425.0
44.423239152 474.0
44.439950421 488.0
44.456661690 468.0
44.473372959 447.0
44.490084228 461.0
44.506795497 468.0
44.523506766 460.0
44.540218035 464.0
44.556929304 489.0
44.573640573 533.0
44.590351842 504.0
44.607063111 545.0
44.623774380 520.0
44.640485649 538.0
44.657196918 523.0
44.673908187 508.0
44.690619456 540.0
44.707330725 540.0
44.724041993 534.0
44.740753262 544.0
44.757464531 567.0
44.774175800 592.0
44.790887069 562.0
44.807598338 574.0
44.824309607 575.0
44.841020876 606.0
44.857732145 586.0
44.874443414 597.0
44.891154683 624.0
44.907865952 572.0
44.924577221 551.0
44.941288490 575.0
44.957999759 565.0
44.974711028 570.0
44.991422297 528.0
45.008133566 544.0
45.024844835 542.0
45.041556104 494.0
45.058267373 506.0
45.074978642 503.0
45.091689911 494.0
45.108401180 506.0
45.125112449 472.0
45.141823718 493.0
45.158534987 495.0
45.175246256 480.0
45.191957525 421.0
45.208668794 499.0
45.225380063 514.0
45.242091332 484.0
45.258802601 517.0
45.275513870 541.0
45.292225139 585.0
45.308936408 649.0
45.325647677 621.0
45.342358946 672.0
45.359070215 691.0
45.375781484 734.0
45.392492753 681.0
45.409204022 671.0
45.425915291 653.0
45.442626560 712.0
45.459337829 654.0
45.476049098 658.0
45.492760367 661.0
45.509471636 644.0
45.526182904 618.0
45.542894173 582.0
45.559605442 606.0
45.576316711 579.0
45.593027980 565.0
45.609739249 532.0
45.626450518 500.0
45.643161787 490.0
45.659873056 525.0
45.676584325 468.0
45.693295594 475.0
45.710006863 491.0
45.726718132 514.0
45.743429401 456.0
45.760140670 494.0
45.776851939 528.0
45.793563208 524.0
45.810274477 464.0
45.826985746 478.0
45.843697015 503.0
45.860408284 493.0
45.877119553 498.0
45.893830822 481.0
45.910542091 457.0
45.927253360 557.0
45.943964629 500.0
45.960675898 561.0
45.977387167 510.0
45.994098436 501.0
46.010809705 506.0
46.027520974 549.0
46.044232243 537.0
46.060943512 531.0
46.077654781 535.0
46.094366050 493.0
46.111077319 502.0
46.127788588 487.0
46.144499857 480.0
46.161211126 482.0
46.177922395 521.0
46.194633664 507.0
46.211344933 480.0
46.228056202 467.0
46.244767471 455.0
46.261478740 464.0
46.278190009 470.0
46.294901278 497.0
46.311612547 481.0
46.328323815 501.0
46.345035084 481.0
46.361746353 465.0
46.378457622 431.0
46.395168891 465.0
46.411880160 500.0
46.428591429 503.0
46.445302698 525.0
46.462013967 491.0
46.478725236 516.0
46.495436505 531.0
46.512147774 535.0
46.528859043 584.0
46.545570312 568.0
46.562281581 666.0
46.578992850 698.0
46.595704119 752.0
46.612415388 770.0
46.629126657 808.0
46.645837926 897.0
46.662549195 990.0
46.679260464 940.0
46.695971733 991.0
46.712683002 1013.0
46.729394271 981.0
46.746105540 1031.0
46.762816809 934.0
46.779528078 950.0
46.796239347 902.0
46.812950616 901.0
46.829661885 803.0
46.846373154 797.0
46.863084423 754.0
46.879795692 734.0
46.896506961 717.0
46.913218230 687.0
46.929929499 662.0
46.946640768 690.0
46.963352037 674.0
46.980063306 687.0
46.996774575 678.0
47.013485844 718.0
47.030197113 673.0
47.046908382 639.0
47.063619651 650.0
47.080330920 587.0
47.097042189 615.0
47.113753458 668.0
47.130464726 679.0
47.147175995 656.0
47.163887264 650.0
47.180598533 651.0
47.197309802 608.0
47.214021071 660.0
47.230732340 662.0
47.247443609 659.0
47.264154878 677.0
47.280866147 661.0
47.297577416 739.0
47.314288685 752.0
47.330999954 803.0
47.347711223 797.0
47.364422492 835.0
47.381133761 902.0
47.397845030 1024.0
47.414556299 1101.0
47.431267568 1156.0
47.447978837 1106.0
47.464690106 1091.0
47.481401375 1038.0
47.498112644 1077.0
47.514823913 1111.0
47.531535182 1126.0
47.548246451 1060.0
47.564957720 1183.0
47.581668989 1010.0
47.598380258 967.0
47.615091527 934.0
47.631802796 930.0
47.648514065 814.0
47.665225334 852.0
47.681936603 780.0
47.698647872 782.0
47.715359141 749.0
47.732070410 745.0
47.748781679 711.0
47.765492948 671.0
47.782204217 664.0
47.798915486 599.0
47.815626755 626.0
47.832338024 638.0
47.849049293 704.0
47.865760562 660.0
47.882471831 597.0
47.899183100 653.0
47.915894369 599.0
47.932605637 591.0
47.949316906 579.0
47.966028175 659.0
47.982739444 629.0
47.999450713 673.0
48.016161982 648.0
48.032873251 736.0
48.049584520 747.0
48.066295789 700.0
48.083007058 745.0
48.099718327 757.0
48.116429596 690.0
48.133140865 640.0
48.149852134 608.0
48.166563403 645.0
48.183274672 667.0
48.199985941 659.0
48.216697210 607.0
48.233408479 609.0
48.250119748 520.0
48.266831017 517.0
48.283542286 526.0
48.300253555 474.0
48.316964824 528.0
48.333676093 504.0
48.350387362 541.0
48.367098631 505.0
48.383809900 518.0
48.400521169 445.0
48.417232438 443.0
48.433943707 406.0
48.450654976 453.0
48.467366245 484.0
48.484077514 494.0
48.500788783 544.0
48.517500052 495.0
48.534211321 459.0
48.550922590 434.0
48.567633859 443.0
48.584345128 456.0
48.601056397 475.0
48.617767666 442.0
48.634478935 473.0
48.651190204 454.0
48.667901473 450.0
48.684612742 452.0
48.701324011 442.0
48.718035280 458.0
48.734746548 515.0
48.751457817 455.0
48.768169086 436.0
48.784880355 438.0
48.801591624 507.0
48.818302893 441.0
48.835014162 522.0
48.851725431 493.0
48.868436700 516.0
48.885147969 572.0
48.901859238 595.0
48.918570507 667.0
48.935281776 734.0
48.951993045 731.0
48.968704314 844.0
48.985415583 773.0
49.002126852 881.0
49.018838121 929.0
49.035549390 889.0
49.052260659 791.0
49.068971928 727.0
49.085683197 727.0
49.102394466 756.0
49.119105735 748.0
49.135817004 708.0
49.152528273 781.0
49.169239542 717.0
49.185950811 626.0
49.202662080 600.0
49.219373349 561.0
49.236084618 535.0
49.252795887 531.0
49.269507156 513.0
49.286218425 551.0
49.302929694 516.0
49.319640963 472.0
49.336352232 476.0
49.353063501 470.0
49.369774770 501.0
49.386486039 440.0
49.403197308 528.0
49.419908577 493.0
49.436619846 470.0
49.453331115 486.0
49.470042384 512.0
49.486753653 500.0
49.503464922 501.0
49.520176191 540.0
49.536887459 559.0
49.553598728 643.0
49.570309997 610.0
49.587021266 608.0
49.603732535 690.0
49.620443804 712.0
49.637155073 721.0
49.653866342 695.0
49.670577611 713.0
49.687288880 731.0
49.704000149 734.0
49.720711418 706.0
49.737422687 675.0
49.754133956 641.0
49.770845225 648.0
49.787556494 624.0
49.804267763 619.0
49.820979032 626.0
49.837690301 584.0
49.854401570 482.0
49.871112839 500.0
49.887824108 521.0
49.904535377 481.0
49.921246646 457.0
49.937957915 479.0
49.954669184 466.0
49.971380453 435.0
49.988091722 443.0
50.004802991 438.0
50.021514260 446.0
50.038225529 453.0
50.054936798 447.0
50.071648067 454.0
50.088359336 454.0
50.105070605 500.0
50.121781874 491.0
50.138493143 506.0
50.155204412 466.0
50.171915681 470.0
50.188626950 483.0
50.205338219 443.0
50.222049488 431.0
50.238760757 454.0
50.255472026 436.0
50.272183295 441.0
50.288894564 401.0
50.305605833 412.0
50.322317102 397.0
50.339028370 432.0
50.355739639 427.0
50.372450908 430.0
50.389162177 411.0
50.405873446 449.0
50.422584715 424.0
50.439295984 425.0
50.456007253 483.0
50.472718522 470.0
50.489429791 454.0
50.506141060 426.0
50.522852329 469.0
50.539563598 463.0
50.556274867 447.0
50.572986136 469.0
50.589697405 476.0
50.606408674 445.0
50.623119943 449.0
50.639831212 458.0
50.656542481 506.0
50.673253750 418.0
50.689965019 442.0
50.706676288 415.0
50.723387557 436.0
50.740098826 412.0
50.756810095 421.0
50.773521364 420.0
50.790232633 418.0
50.806943902 435.0
50.823655171 404.0
50.840366440 464.0
50.857077709 434.0
50.873788978 437.0
50.890500247 406.0
50.907211516 392.0
50.923922785 457.0
50.940634054 447.0
50.957345323 418.0
50.974056592 392.0
50.990767861 388.0
51.007479130 434.0
51.024190399 467.0
51.040901668 418.0
51.057612937 401.0
51.074324206 423.0
51.091035475 428.0
51.107746744 385.0
51.124458013 419.0
51.141169281 427.0
51.157880550 431.0
51.174591819 397.0
51.191303088 436.0
51.208014357 423.0
51.224725626 435.0
51.241436895 441.0
51.258148164 476.0
51.274859433 505.0
51.291570702 456.0
51.308281971 475.0
51.324993240 472.0
51.341704509 473.0
51.358415778 419.0
51.375127047 477.0
51.391838316 472.0
51.408549585 489.0
51.425260854 480.0
51.441972123 426.0
51.458683392 392.0
51.475394661 401.0
51.492105930 395.0
51.508817199 405.0
51.525528468 413.0
51.542239737 432.0
51.558951006 371.0
51.575662275 366.0
51.592373544 375.0
51.609084813 368.0
51.625796082 408.0
51.642507351 406.0
51.659218620 445.0
51.675929889 412.0
51.692641158 449.0
51.709352427 398.0
51.726063696 388.0
51.742774965 368.0
51.759486234 376.0
51.776197503 387.0
51.792908772 397.0
51.809620041 413.0
51.826331310 384.0
51.843042579 395.0
51.859753848 357.0
51.876465117 347.0
51.893176386 362.0
51.909887655 357.0
51.926598924 379.0
51.943310192 372.0
51.960021461 399.0
51.976732730 376.0
51.993443999 342.0
52.010155268 369.0
52.026866537 409.0
52.043577806 389.0
52.060289075 408.0
52.077000344 420.0
52.093711613 409.0
52.110422882 436.0
52.127134151 414.0
52.143845420 426.0
52.160556689 440.0
52.177267958 397.0
52.193979227 446.0
52.210690496 384.0
52.227401765 382.0
52.244113034 431.0
52.260824303 405.0
52.277535572 423.0
52.294246841 420.0
52.310958110 415.0
52.327669379 385.0
52.344380648 419.0
52.361091917 400.0
52.377803186 385.0
52.394514455 374.0
52.411225724 372.0
52.427936993 401.0
52.444648262 409.0
52.461359531 424.0
52.478070800 381.0
52.494782069 383.0
52.511493338 376.0
52.528204607 355.0
52.544915876 380.0
52.561627145 362.0
52.578338414 376.0
52.595049683 364.0
52.611760952 386.0
52.628472221 360.0
52.645183490 380.0
52.661894759 413.0
52.678606028 390.0
52.695317297 331.0
52.712028566 398.0
52.728739835 394.0
52.745451103 385.0
52.762162372 401.0
52.778873641 386.0
52.795584910 395.0
52.812296179 383.0
52.829007448 366.0
52.845718717 418.0
52.862429986 437.0
52.879141255 388.0
52.895852524 443.0
52.912563793 493.0
52.929275062 455.0
52.945986331 476.0
52.962697600 506.0
52.979408869 510.0
52.996120138 458.0
53.012831407 435.0
53.029542676 465.0
53.046253945 492.0
53.062965214 472.0
53.079676483 487.0
53.096387752 440.0
53.113099021 479.0
53.129810290 481.0
53.146521559 501.0
53.163232828 448.0
53.179944097 456.0
53.196655366 465.0
53.213366635 446.0
53.230077904 467.0
53.246789173 440.0
53.263500442 403.0
53.280211711 412.0
53.296922980 404.0
53.313634249 432.0
53.330345518 440.0
53.347056787 399.0
53.363768056 404.0
53.380479325 385.0
53.397190594 413.0
53.413901863 436.0
53.430613132 414.0
53.447324401 422.0
53.464035670 384.0
53.480746939 374.0
53.497458208 413.0
53.514169477 378.0
53.530880746 432.0
53.547592014 422.0
53.564303283 457.0
53.581014552 397.0
53.597725821 430.0
53.614437090 406.0
53.631148359 389.0
53.647859628 399.0
53.664570897 404.0
53.681282166 404.0
53.697993435 390.0
53.714704704 385.0
53.731415973 401.0
53.748127242 364.0
53.764838511 414.0
53.781549780 412.0
53.798261049 429.0
53.814972318 395.0
53.831683587 448.0
53.848394856 380.0
53.865106125 409.0
53.881817394 448.0
53.898528663 410.0
53.915239932 438.0
53.931951201 411.0
53.948662470 412.0
53.965373739 453.0
53.982085008 402.0
53.998796277 455.0
54.015507546 477.0
54.032218815 442.0
54.048930084 453.0
54.065641353 447.0
54.082352622 484.0
54.099063891 508.0
54.115775160 467.0
54.132486429 449.0
54.149197698 484.0
54.165908967 424.0
54.182620236 427.0
54.199331505 439.0
54.216042774 453.0
54.232754043 417.0
54.249465312 410.0
54.266176581 438.0
54.282887850 367.0
54.299599119 407.0
54.316310388 413.0
54.333021657 431.0
54.349732925 400.0
54.366444194 409.0
54.383155463 408.0
54.399866732 410.0
54.416578001 372.0
54.433289270 388.0
54.450000539 378.0
54.466711808 396.0
54.483423077 399.0
54.500134346 404.0
54.516845615 420.0
54.533556884 390.0
54.550268153 414.0
54.566979422 410.0
54.583690691 411.0
54.600401960 398.0
54.617113229 423.0
54.633824498 438.0
54.650535767 452.0
54.667247036 467.0
54.683958305 447.0
54.700669574 482.0
54.717380843 437.0
54.734092112 452.0
54.750803381 466.0
54.767514650 467.0
54.784225919 504.0
54.800937188 496.0
54.817648457 548.0
54.834359726 497.0
54.851070995 535.0
54.867782264 494.0
54.884493533 526.0
54.901204802 519.0
54.917916071 532.0
54.934627340 570.0
54.951338609 551.0
54.968049878 574.0
54.984761147 560.0
55.001472416 560.0
55.018183685 616.0
55.034894954 591.0
55.051606223 564.0
55.068317492 573.0
55.085028761 552.0
55.101740030 578.0
55.118451299 563.0
55.135162568 580.0
55.151873836 596.0
55.168585105 639.0
55.185296374 618.0
55.202007643 655.0
55.218718912 637.0
55.235430181 627.0
55.252141450 618.0
55.268852719 609.0
55.285563988 635.0
55.302275257 580.0
55.318986526 607.0
55.335697795 576.0
55.352409064 580.0
55.369120333 624.0
55.385831602 633.0
55.402542871 627.0
55.419254140 643.0
55.435965409 698.0
55.452676678 702.0
55.469387947 744.0
55.486099216 690.0
55.502810485 676.0
55.519521754 679.0
55.536233023 681.0
55.552944292 661.0
55.569655561 660.0
55.586366830 629.0
55.603078099 635.0
55.619789368 601.0
55.636500637 574.0
55.653211906 627.0
55.669923175 586.0
55.686634444 662.0
55.703345713 634.0
55.720056982 626.0
55.736768251 674.0
55.753479520 615.0
55.770190789 546.0
55.786902058 564.0
55.803613327 552.0
55.820324596 522.0
55.837035865 524.0
55.853747134 524.0
55.870458403 572.0
55.887169672 600.0
55.903880941 594.0
55.920592210 578.0
55.937303479 621.0
55.954014747 616.0
55.970726016 598.0
55.987437285 537.0
56.004148554 538.0
56.020859823 527.0
56.037571092 552.0
56.054282361 497.0
56.070993630 538.0
56.087704899 548.0
56.104416168 522.0
56.121127437 491.0
56.137838706 505.0
56.154549975 493.0
56.171261244 500.0
56.187972513 505.0
56.204683782 474.0
56.221395051 475.0
56.238106320 450.0
56.254817589 413.0
56.271528858 421.0
56.288240127 420.0
56.304951396 437.0
56.321662665 405.0
56.338373934 437.0
56.355085203 438.0
56.371796472 435.0
56.388507741 444.0
56.405219010 432.0
56.421930279 469.0
56.438641548 415.0
56.455352817 397.0
56.472064086 387.0
56.488775355 474.0
56.505486624 419.0
56.522197893 443.0
56.538909162 479.0
56.555620431 484.0
56.572331700 476.0
56.589042969 499.0
56.605754238 570.0
56.622465507 563.0
56.639176776 574.0
56.655888045 589.0
56.672599314 571.0
56.689310583 589.0
56.706021852 630.0
56.722733121 596.0
56.739444390 620.0
56.756155658 578.0
56.772866927 578.0
56.789578196 547.0
56.806289465 534.0
56.823000734 506.0
56.839712003 517.0
56.856423272 535.0
56.873134541 505.0
56.889845810 517.0
56.906557079 509.0
56.923268348 512.0
56.939979617 495.0
56.956690886 522.0
56.973402155 500.0
56.990113424 480.0
57.006824693 472.0
57.023535962 490.0
57.040247231 465.0
57.056958500 436.0
57.073669769 434.0
57.090381038 481.0
57.107092307 465.0
57.123803576 484.0
57.140514845 456.0
57.157226114 495.0
57.173937383 489.0
57.190648652 485.0
57.207359921 516.0
57.224071190 575.0
57.240782459 563.0
57.257493728 578.0
57.274204997 598.0
57.290916266 595.0
57.307627535 651.0
57.324338804 635.0
57.341050073 586.0
57.357761342 635.0
57.374472611 611.0
57.391183880 591.0
57.407895149 584.0
57.424606418 578.0
57.441317687 593.0
57.458028956 603.0
57.474740225 619.0
57.491451494 566.0
57.508162763 608.0
57.524874032 512.0
57.541585301 538.0
57.558296569 531.0
57.575007838 539.0
57.591719107 568.0
57.608430376 567.0
57.625141645 628.0
57.641852914 641.0
57.658564183 666.0
57.675275452 645.0
57.691986721 684.0
57.708697990 708.0
57.725409259 731.0
57.742120528 771.0
57.758831797 724.0
57.775543066 768.0
57.792254335 688.0
57.808965604 698.0
57.825676873 672.0
57.842388142 701.0
57.859099411 716.0
57.875810680 659.0
57.892521949 673.0
57.909233218 652.0
57.925944487 704.0
57.942655756 718.0
57.959367025 668.0
57.976078294 641.0
57.992789563 605.0
58.009500832 603.0
58.026212101 559.0
58.042923370 594.0
58.059634639 586.0
58.076345908 530.0
58.093057177 554.0
58.109768446 544.0
58.126479715 533.0
58.143190984 514.0
58.159902253 533.0
58.176613522 542.0
58.193324791 543.0
58.210036060 521.0
58.226747329 478.0
58.243458598 532.0
58.260169867 521.0
58.276881136 511.0
58.293592405 528.0
58.310303674 533.0
58.327014943 573.0
58.343726212 540.0
58.360437480 601.0
58.377148749 557.0
58.393860018 531.0
58.410571287 544.0
58.427282556 600.0
58.443993825 607.0
58.460705094 571.0
58.477416363 541.0
58.494127632 538.0
58.510838901 512.0
58.527550170 513.0
58.544261439 495.0
58.560972708 527.0
58.577683977 516.0
58.594395246 527.0
58.611106515 555.0
58.627817784 579.0
58.644529053 557.0
58.661240322 575.0
58.677951591 549.0
58.694662860 605.0
58.711374129 565.0
58.728085398 582.0
58.744796667 624.0
58.761507936 595.0
58.778219205 629.0
58.794930474 605.0
58.811641743 605.0
58.828353012 667.0
58.845064281 670.0
58.861775550 699.0
58.878486819 637.0
58.895198088 594.0
58.911909357 600.0
58.928620626 616.0
58.945331895 647.0
58.962043164 618.0
58.978754433 611.0
58.995465702 647.0
59.012176971 657.0
59.028888240 671.0
59.045599509 647.0
59.062310778 638.0
59.079022047 653.0
59.095733316 647.0
59.112444585 619.0
59.129155854 660.0
59.145867123 637.0
59.162578391 633.0
59.179289660 662.0
59.196000929 649.0
59.212712198 661.0
59.229423467 648.0
59.246134736 644.0
59.262846005 623.0
59.279557274 677.0
59.296268543 717.0
59.312979812 672.0
59.329691081 747.0
59.346402350 760.0
59.363113619 758.0
59.379824888 654.0
59.396536157 698.0
59.413247426 676.0
59.429958695 670.0
59.446669964 634.0
59.463381233 609.0
59.480092502 661.0
59.496803771 628.0
59.513515040 594.0
59.530226309 620.0
59.546937578 614.0
59.563648847 636.0
59.580360116 592.0
59.597071385 570.0
59.613782654 538.0
59.630493923 493.0
59.647205192 533.0
59.663916461 484.0
59.680627730 529.0
59.697338999 491.0
59.714050268 494.0
59.730761537 475.0
59.747472806 529.0
59.764184075 524.0
59.780895344 522.0
59.797606613 499.0
59.814317882 461.0
59.831029151 502.0
59.847740420 527.0
59.864451689 502.0
59.881162958 505.0
59.897874227 518.0
59.914585496 505.0
59.931296765 508.0
59.948008034 471.0
59.964719302 491.0
59.981430571 509.0
59.998141840 500.0
60.014853109 539.0
60.031564378 485.0
60.048275647 532.0
60.064986916 553.0
60.081698185 544.0
60.098409454 568.0
60.115120723 584.0
60.131831992 598.0
60.148543261 580.0
60.165254530 612.0
60.181965799 619.0
60.198677068 641.0
60.215388337 625.0
60.232099606 678.0
60.248810875 647.0
60.265522144 653.0
60.282233413 658.0
60.298944682 657.0
60.315655951 660.0
60.332367220 619.0
60.349078489 637.0
60.365789758 649.0
60.382501027 704.0
60.399212296 660.0
60.415923565 696.0
60.432634834 773.0
60.449346103 724.0
60.466057372 775.0
60.482768641 767.0
60.499479910 754.0
60.516191179 748.0
60.532902448 766.0
60.549613717 746.0
60.566324986 758.0
60.583036255 770.0
60.599747524 725.0
60.616458793 730.0
60.633170062 680.0
60.649881331 671.0
60.666592600 715.0
60.683303869 707.0
60.700015138 712.0
60.716726407 678.0
60.733437676 674.0
60.750148945 706.0
60.766860213 766.0
60.783571482 697.0
60.800282751 758.0
60.816994020 817.0
60.833705289 768.0
60.850416558 796.0
60.867127827 882.0
60.883839096 850.0
60.900550365 859.0
60.917261634 895.0
60.933972903 830.0
60.950684172 874.0
60.967395441 846.0
60.984106710 858.0
61.000817979 855.0
61.017529248 842.0
61.034240517 795.0
61.050951786 818.0
61.067663055 684.0
61.084374324 757.0
61.101085593 670.0
61.117796862 620.0
61.134508131 634.0
61.151219400 623.0
61.167930669 634.0
61.184641938 599.0
61.201353207 543.0
61.218064476 551.0
61.234775745 499.0
61.251487014 466.0
61.268198283 476.0
61.284909552 482.0
61.301620821 476.0
61.318332090 464.0
61.335043359 444.0
61.351754628 465.0
61.368465897 412.0
61.385177166 456.0
61.401888435 446.0
61.418599704 413.0
61.435310973 402.0
61.452022242 385.0
61.468733511 483.0
61.485444780 410.0
61.502156049 447.0
61.518867318 450.0
61.535578587 430.0
61.552289856 429.0
61.569001124 402.0
61.585712393 432.0
61.602423662 486.0
61.619134931 421.0
61.635846200 411.0
61.652557469 435.0
61.669268738 391.0
61.685980007 443.0
61.702691276 425.0
61.719402545 478.0
61.736113814 442.0
61.752825083 423.0
61.769536352 396.0
61.786247621 399.0
61.802958890 436.0
61.819670159 407.0
61.836381428 454.0
61.853092697 463.0
61.869803966 450.0
61.886515235 440.0
61.903226504 433.0
61.919937773 400.0
61.936649042 389.0
61.953360311 389.0
61.970071580 397.0
61.986782849 404.0
62.003494118 417.0
62.020205387 401.0
62.036916656 403.0
62.053627925 413.0
62.070339194 394.0
62.087050463 401.0
62.103761732 388.0
62.120473001 417.0
62.137184270 419.0
62.153895539 404.0
62.170606808 409.0
62.187318077 451.0
62.204029346 398.0
62.220740615 437.0
62.237451884 453.0
62.254163153 417.0
62.270874422 405.0
62.287585691 413.0
62.304296960 399.0
62.321008229 441.0
62.337719498 483.0
62.354430767 428.0
62.371142035 424.0
62.387853304 457.0
62.404564573 460.0
62.421275842 481.0
62.437987111 440.0
62.454698380 484.0
62.471409649 498.0
62.488120918 456.0
62.504832187 502.0
62.521543456 476.0
62.538254725 428.0
62.554965994 462.0
62.571677263 483.0
62.588388532 466.0
62.605099801 497.0
62.621811070 411.0
62.638522339 454.0
62.655233608 461.0
62.671944877 479.0
62.688656146 510.0
62.705367415 475.0
62.722078684 462.0
62.738789953 513.0
62.755501222 576.0
62.772212491 529.0
62.788923760 545.0
62.805635029 609.0
62.822346298 628.0
62.839057567 725.0
62.855768836 735.0
62.872480105 738.0
62.889191374 725.0
62.905902643 757.0
62.922613912 799.0
62.939325181 759.0
62.956036450 708.0
62.972747719 750.0
62.989458988 742.0
63.006170257 767.0
63.022881526 729.0
63.039592795 744.0
63.056304064 726.0
63.073015333 736.0
63.089726602 699.0
63.106437871 724.0
63.123149140 651.0
63.139860409 669.0
63.156571678 649.0
63.173282946 587.0
63.189994215 561.0
63.206705484 550.0
63.223416753 530.0
63.240128022 537.0
63.256839291 581.0
63.273550560 556.0
63.290261829 565.0
63.306973098 555.0
63.323684367 584.0
63.340395636 605.0
63.357106905 588.0
63.373818174 553.0
63.390529443 568.0
63.407240712 603.0
63.423951981 591.0
63.440663250 646.0
63.457374519 630.0
63.474085788 611.0
63.490797057 590.0
63.507508326 623.0
63.524219595 605.0
63.540930864 552.0
63.557642133 540.0
63.574353402 525.0
63.591064671 560.0
63.607775940 472.0
63.624487209 518.0
63.641198478 470.0
63.657909747 474.0
63.674621016 488.0
63.691332285 489.0
63.708043554 460.0
63.724754823 467.0
63.741466092 426.0
63.758177361 435.0
63.774888630 467.0
63.791599899 453.0
63.808311168 441.0
63.825022437 462.0
63.841733706 428.0
63.858444975 413.0
63.875156244 416.0
63.891867513 385.0
63.908578782 433.0
63.925290051 442.0
63.942001320 393.0
63.958712589 421.0
63.975423857 440.0
63.992135126 371.0
64.008846395 403.0
64.025557664 422.0
64.042268933 402.0
64.058980202 388.0
64.075691471 429.0
64.092402740 402.0
64.109114009 383.0
64.125825278 392.0
64.142536547 397.0
64.159247816 393.0
64.175959085 388.0
64.192670354 401.0
64.209381623 399.0
64.226092892 383.0
64.242804161 384.0
64.259515430 417.0
64.276226699 348.0
64.292937968 392.0
64.309649237 406.0
64.326360506 380.0
64.343071775 404.0
64.359783044 356.0
64.376494313 369.0
64.393205582 376.0
64.409916851 344.0
64.426628120 373.0
64.443339389 366.0
64.460050658 377.0
64.476761927 419.0
64.493473196 414.0
64.510184465 441.0
64.526895734 405.0
64.543607003 422.0
64.560318272 421.0
64.577029541 417.0
64.593740810 432.0
64.610452079 396.0
64.627163348 397.0
64.643874617 398.0
64.660585886 395.0
64.677297155 429.0
64.694008424 409.0
64.710719693 418.0
64.727430962 404.0
64.744142231 419.0
64.760853500 389.0
64.777564768 439.0
64.794276037 415.0
64.810987306 401.0
64.827698575 380.0
64.844409844 348.0
64.861121113 402.0
64.877832382 401.0
64.894543651 404.0
64.911254920 425.0
64.927966189 385.0
64.944677458 431.0
64.961388727 419.0
64.978099996 436.0
64.994811265 467.0
65.011522534 512.0
65.028233803 509.0
65.044945072 508.0
65.061656341 483.0
65.078367610 496.0
65.095078879 462.0
65.111790148 435.0
65.128501417 422.0
65.145212686 390.0
65.161923955 439.0
65.178635224 412.0
65.195346493 437.0
65.212057762 436.0
65.228769031 448.0
65.245480300 445.0
65.262191569 435.0
65.278902838 426.0
65.295614107 397.0
65.312325376 390.0
65.329036645 395.0
65.345747914 433.0
65.362459183 414.0
65.379170452 415.0
65.395881721 484.0
65.412592990 485.0
65.429304259 452.0
65.446015528 461.0
65.462726797 413.0
65.479438066 423.0
65.496149335 395.0
65.512860604 426.0
65.529571873 439.0
65.546283142 412.0
65.562994411 395.0
65.579705679 413.0
65.596416948 431.0
65.613128217 447.0
65.629839486 455.0
65.646550755 407.0
65.663262024 418.0
65.679973293 384.0
65.696684562 428.0
65.713395831 403.0
65.730107100 410.0
65.746818369 426.0
65.763529638 399.0
65.780240907 437.0
65.796952176 431.0
65.813663445 399.0
65.830374714 431.0
65.847085983 448.0
65.863797252 425.0
65.880508521 456.0
65.897219790 433.0
65.913931059 427.0
65.930642328 468.0
65.947353597 438.0
65.964064866 484.0
65.980776135 489.0
65.997487404 513.0
66.014198673 539.0
66.030909942 520.0
66.047621211 479.0
66.064332480 524.0
66.081043749 497.0
66.097755018 522.0
66.114466287 475.0
66.131177556 486.0
66.147888825 475.0
66.164600094 474.0
66.181311363 490.0
66.198022632 484.0
66.214733901 547.0
66.231445170 471.0
66.248156439 503.0
66.264867708 439.0
66.281578977 472.0
66.298290246 453.0
66.315001515 445.0
66.331712784 393.0
66.348424053 429.0
66.365135322 404.0
66.381846590 415.0
66.398557859 395.0
66.415269128 415.0
66.431980397 436.0
66.448691666 399.0
66.465402935 417.0
66.482114204 400.0
66.498825473 423.0
66.515536742 420.0
66.532248011 415.0
66.548959280 431.0
66.565670549 391.0
66.582381818 443.0
66.599093087 424.0
66.615804356 387.0
66.632515625 426.0
66.649226894 422.0
66.665938163 413.0
66.682649432 411.0
66.699360701 428.0
66.716071970 461.0
66.732783239 420.0
66.749494508 463.0
66.766205777 484.0
66.782917046 475.0
66.799628315 445.0
66.816339584 477.0
66.833050853 414.0
66.849762122 384.0
66.866473391 412.0
66.883184660 381.0
66.899895929 405.0
66.916607198 398.0
66.933318467 410.0
66.950029736 396.0
66.966741005 370.0
66.983452274 441.0
67.000163543 427.0
67.016874812 376.0
67.033586081 403.0
67.050297350 383.0
67.067008619 394.0
67.083719888 362.0
67.100431157 380.0
67.117142426 371.0
67.133853695 362.0
67.150564964 392.0
67.167276233 369.0
67.183987501 352.0
67.200698770 325.0
67.217410039 317.0
67.234121308 355.0
67.250832577 349.0
67.267543846 366.0
67.284255115 398.0
67.300966384 380.0
67.317677653 354.0
67.334388922 386.0
67.351100191 422.0
67.367811460 381.0
67.384522729 375.0
67.401233998 379.0
67.417945267 349.0
67.434656536 339.0
67.451367805 379.0
67.468079074 382.0
67.484790343 394.0
67.501501612 363.0
67.518212881 405.0
67.534924150 407.0
67.551635419 408.0
67.568346688 375.0
67.585057957 421.0
67.601769226 423.0
67.618480495 448.0
67.635191764 441.0
67.651903033 481.0
67.668614302 462.0
67.685325571 419.0
67.702036840 520.0
67.718748109 451.0
67.735459378 402.0
67.752170647 444.0
67.768881916 416.0
67.785593185 435.0
67.802304454 396.0
67.819015723 453.0
67.835726992 427.0
67.852438261 434.0
67.869149530 416.0
67.885860799 421.0
67.902572068 456.0
67.919283337 415.0
67.935994606 406.0
67.952705875 429.0
67.969417144 390.0
67.986128412 343.0
68.002839681 392.0
68.019550950 406.0
68.036262219 417.0
68.052973488 380.0
68.069684757 358.0
68.086396026 378.0
68.103107295 370.0
68.119818564 421.0
68.136529833 386.0
68.153241102 407.0
68.169952371 394.0
68.186663640 390.0
68.203374909 446.0
68.220086178 457.0
68.236797447 393.0
68.253508716 386.0
68.270219985 406.0
68.286931254 395.0
68.303642523 424.0
68.320353792 400.0
68.337065061 384.0
68.353776330 408.0
68.370487599 396.0
68.387198868 437.0
68.403910137 365.0
68.420621406 391.0
68.437332675 393.0
68.454043944 387.0
68.470755213 365.0
68.487466482 380.0
68.504177751 344.0
68.520889020 327.0
68.537600289 351.0
68.554311558 372.0
68.571022827 340.0
68.587734096 328.0
68.604445365 360.0
68.621156634 351.0
68.637867903 353.0
68.654579172 338.0
68.671290441 352.0
68.688001710 325.0
68.704712979 334.0
68.721424248 311.0
68.738135517 315.0
68.754846786 320.0
68.771558055 330.0
68.788269323 331.0
68.804980592 344.0
68.821691861 371.0
68.838403130 372.0
68.855114399 327.0
68.871825668 332.0
68.888536937 338.0
68.905248206 329.0
68.921959475 351.0
68.938670744 374.0
68.955382013 377.0
68.972093282 366.0
68.988804551 389.0
69.005515820 367.0
69.022227089 361.0
69.038938358 346.0
69.055649627 378.0
69.072360896 363.0
69.089072165 377.0
69.105783434 344.0
69.122494703 370.0
69.139205972 360.0
69.155917241 385.0
69.172628510 347.0
69.189339779 374.0
69.206051048 339.0
69.222762317 370.0
69.239473586 366.0
69.256184855 359.0
69.272896124 403.0
69.289607393 431.0
69.306318662 404.0
69.323029931 399.0
69.339741200 445.0
69.356452469 462.0
69.373163738 457.0
69.389875007 520.0
69.406586276 492.0
69.423297545 477.0
69.440008814 498.0
69.456720083 452.0
69.473431352 460.0
69.490142621 447.0
69.506853890 436.0
69.523565159 462.0
69.540276428 462.0
69.556987697 482.0
69.573698966 478.0
69.590410234 415.0
69.607121503 415.0
69.623832772 493.0
69.640544041 463.0
69.657255310 448.0
69.673966579 430.0
69.690677848 418.0
69.707389117 407.0
69.724100386 385.0
69.740811655 414.0
69.757522924 382.0
69.774234193 415.0
69.790945462 422.0
69.807656731 372.0
69.824368000 417.0
69.841079269 370.0
69.857790538 399.0
69.874501807 386.0
69.891213076 376.0
69.907924345 403.0
69.924635614 435.0
69.941346883 402.0
69.958058152 381.0
69.974769421 408.0
69.991480690 411.0
