5.000000 891.000000
5.221000 753.000000
5.442100 834.000000
5.663100 809.000000
5.884200 892.000000
6.105200 883.000000
6.326300 880.000000
6.547300 947.000000
6.768400 987.000000
6.989400 968.000000
7.210500 1024.000000
7.431500 1009.000000
7.652600 971.000000
7.873600 1069.000000
8.094700 1001.000000
8.315700 1004.000000
8.536800 969.000000
8.757800 918.000000
8.978900 903.000000
9.199900 936.000000
9.421000 933.000000
9.642000 899.000000
9.863100 908.000000
10.084100 789.000000
10.305200 810.000000
10.526200 811.000000
10.747300 776.000000
10.968300 731.000000
11.189400 772.000000
11.410400 744.000000
11.631500 663.000000
11.852500 697.000000
12.073600 675.000000
12.294700 728.000000
12.515700 737.000000
12.736800 734.000000
12.957800 680.000000
13.178900 679.000000
13.399900 670.000000
13.621000 693.000000
13.842000 645.000000
14.063100 653.000000
14.284100 666.000000
14.505200 552.000000
14.726200 588.000000
14.947300 653.000000
15.168300 616.000000
15.389400 626.000000
15.610400 618.000000
15.831500 567.000000
16.052500 612.000000
16.273600 626.000000
16.494600 567.000000
16.715700 568.000000
16.936700 625.000000
17.157800 566.000000
17.378800 668.000000
17.599800 635.000000
17.820900 660.000000
18.041900 644.000000
18.263000 644.000000
18.484000 646.000000
18.705100 658.000000
18.926100 683.000000
19.147200 688.000000
19.368200 672.000000
19.589300 720.000000
19.810300 671.000000
20.031400 801.000000
20.252400 923.000000
20.473500 886.000000
20.694500 782.000000
20.915600 738.000000
21.136600 908.000000
21.357700 846.000000
21.578700 804.000000
21.799800 725.000000
22.020800 674.000000
22.241900 676.000000
22.462900 640.000000
22.684000 693.000000
22.905000 625.000000
23.126100 699.000000
23.347100 627.000000
23.568200 653.000000
23.789200 669.000000
24.010300 629.000000
24.231300 671.000000
24.452400 652.000000
24.673400 602.000000
24.894500 662.000000
25.115500 576.000000
25.336600 603.000000
25.557600 594.000000
25.778700 591.000000
25.999700 638.000000
26.220800 643.000000
26.441800 709.000000
26.662900 765.000000
26.883900 859.000000
27.105000 797.000000
27.326000 736.000000
27.547100 543.000000
27.768100 582.000000
27.989200 517.000000
28.210200 483.000000
28.431300 456.000000
28.652300 465.000000
28.873400 483.000000
29.094400 442.000000
29.315500 451.000000
29.536500 438.000000
29.757600 442.000000
29.978600 394.000000
30.199700 388.000000
30.420700 377.000000
30.641800 344.000000
30.862800 356.000000
31.083900 374.000000
31.304900 355.000000
31.526000 352.000000
31.747000 349.000000
31.968100 361.000000
32.189100 292.000000
32.410200 326.000000
32.631300 341.000000
32.852300 333.000000
33.073300 331.000000
33.294400 351.000000
33.515500 335.000000
33.736500 359.000000
33.957500 320.000000
34.178600 334.000000
34.399700 310.000000
34.620700 379.000000
34.841700 355.000000
35.062800 374.000000
35.283900 414.000000
35.504900 358.000000
35.725900 373.000000
35.947000 346.000000
36.168100 343.000000
36.389100 294.000000
36.610100 336.000000
36.831200 287.000000
37.052300 300.000000
37.273300 319.000000
37.494300 325.000000
37.715400 301.000000
37.936500 346.000000
38.157500 304.000000
38.378500 309.000000
38.599600 311.000000
38.820700 343.000000
39.041700 358.000000
39.262700 316.000000
39.483800 388.000000
39.704900 543.000000
39.925900 466.000000
40.146900 398.000000
40.368000 364.000000
40.589100 344.000000
40.810100 320.000000
41.031100 310.000000
41.252200 321.000000
41.473300 350.000000
41.694300 330.000000
41.915300 329.000000
42.136400 330.000000
42.357500 338.000000
42.578500 358.000000
42.799500 372.000000
43.020600 396.000000
43.241600 405.000000
43.462700 362.000000
43.683700 368.000000
43.904800 395.000000
44.125800 366.000000
44.346900 384.000000
44.567900 404.000000
44.789000 420.000000
45.010000 398.000000
45.231100 369.000000
45.452100 350.000000
45.673200 378.000000
45.894200 334.000000
46.115300 313.000000
46.336300 332.000000
46.557400 327.000000
46.778400 340.000000
46.999500 352.000000
47.220500 342.000000
47.441600 327.000000
47.662600 318.000000
47.883700 325.000000
48.104800 367.000000
48.325800 355.000000
48.546800 392.000000
48.767900 354.000000
48.989000 338.000000
49.210000 302.000000
49.431000 347.000000
49.652100 335.000000
49.873200 292.000000
50.094200 357.000000
50.315200 331.000000
50.536300 327.000000
50.757400 415.000000
50.978400 519.000000
51.199400 441.000000
51.420500 386.000000
51.641600 359.000000
51.862600 367.000000
52.083600 371.000000
52.304700 379.000000
52.525800 370.000000
52.746800 392.000000
52.967800 340.000000
53.188900 387.000000
53.410000 424.000000
53.631000 375.000000
53.852000 368.000000
54.073100 322.000000
54.294200 352.000000
54.515200 376.000000
54.736200 351.000000
54.957300 349.000000
55.178400 361.000000
55.399400 344.000000
55.620400 397.000000
55.841500 332.000000
56.062600 355.000000
56.283600 368.000000
56.504600 362.000000
56.725700 332.000000
56.946800 364.000000
57.167800 342.000000
57.388800 322.000000
57.609900 350.000000
57.831000 333.000000
58.052000 380.000000
58.273000 362.000000
58.494100 396.000000
58.715200 378.000000
58.936200 386.000000
59.157200 344.000000
59.378300 334.000000
59.599400 338.000000
59.820400 342.000000
60.041400 354.000000
60.262500 376.000000
60.483600 339.000000
60.704600 343.000000
60.925600 324.000000
61.146700 376.000000
61.367800 375.000000
61.588800 371.000000
61.809800 341.000000
62.030900 339.000000
62.252000 371.000000
62.473000 355.000000
62.694000 388.000000
62.915100 348.000000
63.136200 384.000000
63.357200 359.000000
63.578200 359.000000
63.799300 361.000000
64.020300 349.000000
64.241400 332.000000
64.462500 337.000000
64.683500 361.000000
64.904600 367.000000
65.125600 325.000000
65.346600 326.000000
65.567700 324.000000
65.788700 306.000000
66.009800 316.000000
66.230900 316.000000
66.451900 310.000000
66.673000 352.000000
66.894000 350.000000
67.115000 370.000000
67.336100 329.000000
67.557100 342.000000
67.778200 298.000000
67.999300 305.000000
68.220300 297.000000
68.441300 315.000000
68.662400 286.000000
68.883400 300.000000
69.104500 300.000000
69.325500 285.000000
69.546600 301.000000
69.767700 303.000000
69.988700 283.000000
70.209700 331.000000
70.430800 301.000000
70.651800 273.000000
70.872900 286.000000
71.093900 286.000000
71.315000 298.000000
71.536100 264.000000
71.757100 254.000000
71.978100 283.000000
72.199200 285.000000
72.420200 263.000000
72.641300 252.000000
72.862300 264.000000
73.083400 269.000000
73.304500 308.000000
73.525500 286.000000
73.746500 251.000000
73.967600 260.000000
74.188600 273.000000
74.409700 276.000000
74.630700 254.000000
74.851800 274.000000
75.072900 261.000000
75.293900 229.000000
75.514900 301.000000
75.736000 265.000000
75.957000 258.000000
76.178100 285.000000
76.399200 272.000000
76.620200 238.000000
76.841300 281.000000
77.062300 255.000000
77.283300 253.000000
77.504400 304.000000
77.725400 284.000000
77.946500 284.000000
78.167600 256.000000
78.388600 279.000000
78.609700 264.000000
78.830700 281.000000
79.051700 271.000000
79.272800 277.000000
79.493800 321.000000
79.714900 272.000000
79.936000 233.000000
80.157000 286.000000
80.378100 273.000000
80.599100 297.000000
80.820100 274.000000
81.041200 272.000000
81.262200 264.000000
81.483300 282.000000
81.704400 258.000000
81.925400 296.000000
82.146500 255.000000
82.367500 269.000000
82.588500 269.000000
82.809600 224.000000
83.030600 275.000000
83.251700 277.000000
83.472800 291.000000
83.693800 244.000000
83.914900 259.000000
84.135900 268.000000
84.356900 273.000000
84.578000 234.000000
84.799000 254.000000
85.020100 230.000000
85.241200 264.000000
85.462200 250.000000
85.683300 249.000000
85.904300 270.000000
86.125300 256.000000
86.346400 226.000000
86.567400 242.000000
86.788500 243.000000
87.009600 238.000000
87.230600 251.000000
87.451700 233.000000
87.672700 208.000000
87.893700 223.000000
88.114800 214.000000
88.335800 238.000000
88.556900 255.000000
88.778000 226.000000
88.999000 194.000000
89.220100 229.000000
89.441100 216.000000
89.662100 224.000000
89.883200 204.000000
90.104200 215.000000
90.325300 213.000000
90.546400 230.000000
90.767400 229.000000
90.988500 213.000000
91.209500 193.000000
91.430500 216.000000
91.651600 201.000000
91.872600 213.000000
92.093700 218.000000
92.314800 215.000000
92.535800 195.000000
92.756900 202.000000
92.977900 252.000000
93.198900 214.000000
93.420000 207.000000
93.641000 218.000000
93.862100 215.000000
94.083200 191.000000
94.304200 198.000000
94.525200 208.000000
94.746300 227.000000
94.967300 227.000000
95.188400 217.000000
95.409400 229.000000
95.630500 207.000000
95.851600 190.000000
96.072600 196.000000
96.293600 210.000000
96.514700 203.000000
96.735700 191.000000
96.956800 220.000000
97.177800 213.000000
97.398900 221.000000
97.620000 224.000000
97.841000 205.000000
98.062000 206.000000
98.283100 169.000000
98.504100 168.000000
98.725200 202.000000
98.946200 192.000000
99.167300 191.000000
99.388400 216.000000
99.609400 176.000000
99.830400 197.000000
