5.000000 753.000000
5.221000 747.000000
5.442100 781.000000
5.663100 782.000000
5.884200 732.000000
6.105200 851.000000
6.326300 817.000000
6.547300 809.000000
6.768400 891.000000
6.989400 958.000000
7.210500 910.000000
7.431500 969.000000
7.652600 990.000000
7.873600 1045.000000
8.094700 955.000000
8.315700 965.000000
8.536800 1024.000000
8.757800 953.000000
8.978900 976.000000
9.199900 954.000000
9.421000 947.000000
9.642000 972.000000
9.863100 874.000000
10.084100 831.000000
10.305200 881.000000
10.526200 864.000000
10.747300 831.000000
10.968300 834.000000
11.189400 766.000000
11.410400 784.000000
11.631500 728.000000
11.852500 768.000000
12.073600 736.000000
12.294700 731.000000
12.515700 679.000000
12.736800 661.000000
12.957800 649.000000
13.178900 705.000000
13.399900 625.000000
13.621000 655.000000
13.842000 584.000000
14.063100 603.000000
14.284100 588.000000
14.505200 575.000000
14.726200 600.000000
14.947300 605.000000
15.168300 619.000000
15.389400 649.000000
15.610400 624.000000
15.831500 540.000000
16.052500 561.000000
16.273600 559.000000
16.494600 553.000000
16.715700 529.000000
16.936700 556.000000
17.157800 538.000000
17.378800 538.000000
17.599800 510.000000
17.820900 483.000000
18.041900 491.000000
18.263000 532.000000
18.484000 564.000000
18.705100 520.000000
18.926100 488.000000
19.147200 512.000000
19.368200 496.000000
19.589300 518.000000
19.810300 537.000000
20.031400 486.000000
20.252400 518.000000
20.473500 516.000000
20.694500 466.000000
20.915600 468.000000
21.136600 467.000000
21.357700 498.000000
21.578700 500.000000
21.799800 509.000000
22.020800 490.000000
22.241900 452.000000
22.462900 443.000000
22.684000 490.000000
22.905000 487.000000
23.126100 494.000000
23.347100 497.000000
23.568200 440.000000
23.789200 458.000000
24.010300 431.000000
24.231300 494.000000
24.452400 509.000000
24.673400 457.000000
24.894500 456.000000
25.115500 467.000000
25.336600 442.000000
25.557600 498.000000
25.778700 477.000000
25.999700 471.000000
26.220800 445.000000
26.441800 436.000000
26.662900 426.000000
26.883900 413.000000
27.105000 424.000000
27.326000 391.000000
27.547100 388.000000
27.768100 412.000000
27.989200 335.000000
28.210200 403.000000
28.431300 369.000000
28.652300 348.000000
28.873400 395.000000
29.094400 346.000000
29.315500 372.000000
29.536500 330.000000
29.757600 353.000000
29.978600 347.000000
30.199700 346.000000
30.420700 318.000000
30.641800 310.000000
30.862800 355.000000
31.083900 322.000000
31.304900 349.000000
31.526000 339.000000
31.747000 351.000000
31.968100 327.000000
32.189100 330.000000
32.410200 306.000000
32.631300 319.000000
32.852300 324.000000
33.073300 327.000000
33.294400 328.000000
33.515500 286.000000
33.736500 314.000000
33.957500 301.000000
34.178600 292.000000
34.399700 344.000000
34.620700 313.000000
34.841700 307.000000
35.062800 283.000000
35.283900 278.000000
35.504900 320.000000
35.725900 305.000000
35.947000 315.000000
36.168100 317.000000
36.389100 309.000000
36.610100 334.000000
36.831200 335.000000
37.052300 324.000000
37.273300 290.000000
37.494300 303.000000
37.715400 260.000000
37.936500 301.000000
38.157500 318.000000
38.378500 306.000000
38.599600 294.000000
38.820700 305.000000
39.041700 292.000000
39.262700 310.000000
39.483800 290.000000
39.704900 299.000000
39.925900 327.000000
40.146900 319.000000
40.368000 309.000000
40.589100 312.000000
40.810100 333.000000
41.031100 326.000000
41.252200 353.000000
41.473300 310.000000
41.694300 309.000000
41.915300 329.000000
42.136400 323.000000
42.357500 321.000000
42.578500 328.000000
42.799500 365.000000
43.020600 347.000000
43.241600 369.000000
43.462700 347.000000
43.683700 419.000000
43.904800 420.000000
44.125800 455.000000
44.346900 678.000000
44.567900 1385.000000
44.789000 1640.000000
45.010000 962.000000
45.231100 507.000000
45.452100 415.000000
45.673200 356.000000
45.894200 344.000000
46.115300 366.000000
46.336300 354.000000
46.557400 357.000000
46.778400 309.000000
46.999500 323.000000
47.220500 346.000000
47.441600 307.000000
47.662600 312.000000
47.883700 311.000000
48.104800 323.000000
48.325800 330.000000
48.546800 261.000000
48.767900 319.000000
48.989000 314.000000
49.210000 300.000000
49.431000 321.000000
49.652100 300.000000
49.873200 323.000000
50.094200 321.000000
50.315200 312.000000
50.536300 333.000000
50.757400 291.000000
50.978400 333.000000
51.199400 320.000000
51.420500 356.000000
51.641600 443.000000
51.862600 639.000000
52.083600 701.000000
52.304700 543.000000
52.525800 423.000000
52.746800 376.000000
52.967800 382.000000
53.188900 275.000000
53.410000 330.000000
53.631000 322.000000
53.852000 325.000000
54.073100 310.000000
54.294200 318.000000
54.515200 285.000000
54.736200 289.000000
54.957300 330.000000
55.178400 298.000000
55.399400 345.000000
55.620400 293.000000
55.841500 321.000000
56.062600 319.000000
56.283600 302.000000
56.504600 311.000000
56.725700 309.000000
56.946800 285.000000
57.167800 310.000000
57.388800 292.000000
57.609900 316.000000
57.831000 312.000000
58.052000 326.000000
58.273000 322.000000
58.494100 337.000000
58.715200 310.000000
58.936200 323.000000
59.157200 319.000000
59.378300 344.000000
59.599400 356.000000
59.820400 356.000000
60.041400 319.000000
60.262500 341.000000
60.483600 305.000000
60.704600 339.000000
60.925600 340.000000
61.146700 342.000000
61.367800 353.000000
61.588800 332.000000
61.809800 350.000000
62.030900 342.000000
62.252000 334.000000
62.473000 333.000000
62.694000 347.000000
62.915100 355.000000
63.136200 331.000000
63.357200 362.000000
63.578200 350.000000
63.799300 301.000000
64.020300 340.000000
64.241400 325.000000
64.462500 312.000000
64.683500 310.000000
64.904600 300.000000
65.125600 340.000000
65.346600 320.000000
65.567700 334.000000
65.788700 322.000000
66.009800 320.000000
66.230900 301.000000
66.451900 274.000000
66.673000 291.000000
66.894000 309.000000
67.115000 260.000000
67.336100 281.000000
67.557100 271.000000
67.778200 285.000000
67.999300 271.000000
68.220300 307.000000
68.441300 291.000000
68.662400 279.000000
68.883400 283.000000
69.104500 259.000000
69.325500 320.000000
69.546600 282.000000
69.767700 297.000000
69.988700 261.000000
70.209700 304.000000
70.430800 286.000000
70.651800 297.000000
70.872900 260.000000
71.093900 280.000000
71.315000 274.000000
71.536100 266.000000
71.757100 304.000000
71.978100 269.000000
72.199200 254.000000
72.420200 273.000000
72.641300 241.000000
72.862300 281.000000
73.083400 273.000000
73.304500 276.000000
73.525500 229.000000
73.746500 256.000000
73.967600 246.000000
74.188600 272.000000
74.409700 251.000000
74.630700 275.000000
74.851800 259.000000
75.072900 248.000000
75.293900 254.000000
75.514900 286.000000
75.736000 277.000000
75.957000 303.000000
76.178100 315.000000
76.399200 383.000000
76.620200 369.000000
76.841300 367.000000
77.062300 299.000000
77.283300 301.000000
77.504400 296.000000
77.725400 248.000000
77.946500 281.000000
78.167600 287.000000
78.388600 293.000000
78.609700 307.000000
78.830700 293.000000
79.051700 260.000000
79.272800 267.000000
79.493800 283.000000
79.714900 271.000000
79.936000 304.000000
80.157000 268.000000
80.378100 266.000000
80.599100 253.000000
80.820100 283.000000
81.041200 215.000000
81.262200 283.000000
81.483300 239.000000
81.704400 279.000000
81.925400 259.000000
82.146500 270.000000
82.367500 250.000000
82.588500 248.000000
82.809600 265.000000
83.030600 305.000000
83.251700 230.000000
83.472800 246.000000
83.693800 250.000000
83.914900 253.000000
84.135900 239.000000
84.356900 230.000000
84.578000 241.000000
84.799000 241.000000
85.020100 224.000000
85.241200 249.000000
85.462200 241.000000
85.683300 226.000000
85.904300 239.000000
86.125300 249.000000
86.346400 231.000000
86.567400 222.000000
86.788500 234.000000
87.009600 233.000000
87.230600 240.000000
87.451700 235.000000
87.672700 223.000000
87.893700 247.000000
88.114800 211.000000
88.335800 212.000000
88.556900 182.000000
88.778000 237.000000
88.999000 215.000000
89.220100 220.000000
89.441100 205.000000
89.662100 186.000000
89.883200 218.000000
90.104200 217.000000
90.325300 235.000000
90.546400 200.000000
90.767400 231.000000
90.988500 180.000000
91.209500 211.000000
91.430500 203.000000
91.651600 221.000000
91.872600 212.000000
92.093700 211.000000
92.314800 217.000000
92.535800 254.000000
92.756900 256.000000
92.977900 334.000000
93.198900 331.000000
93.420000 285.000000
93.641000 256.000000
93.862100 208.000000
94.083200 214.000000
94.304200 222.000000
94.525200 215.000000
94.746300 201.000000
94.967300 183.000000
95.188400 215.000000
95.409400 195.000000
95.630500 218.000000
95.851600 193.000000
96.072600 220.000000
96.293600 227.000000
96.514700 210.000000
96.735700 200.000000
96.956800 191.000000
97.177800 193.000000
97.398900 200.000000
97.620000 199.000000
97.841000 219.000000
98.062000 240.000000
98.283100 195.000000
98.504100 224.000000
98.725200 237.000000
98.946200 221.000000
99.167300 222.000000
99.388400 232.000000
99.609400 251.000000
99.830400 248.000000
