5.000000 974.000000
5.221000 1001.000000
5.442100 932.000000
5.663100 962.000000
5.884200 1057.000000
6.105200 1054.000000
6.326300 953.000000
6.547300 1045.000000
6.768400 1094.000000
6.989400 1039.000000
7.210500 1011.000000
7.431500 1065.000000
7.652600 1009.000000
7.873600 1085.000000
8.094700 1055.000000
8.315700 978.000000
8.536800 1025.000000
8.757800 938.000000
8.978900 1029.000000
9.199900 939.000000
9.421000 983.000000
9.642000 903.000000
9.863100 917.000000
10.084100 800.000000
10.305200 864.000000
10.526200 823.000000
10.747300 832.000000
10.968300 793.000000
11.189400 730.000000
11.410400 759.000000
11.631500 783.000000
11.852500 737.000000
12.073600 700.000000
12.294700 758.000000
12.515700 674.000000
12.736800 725.000000
12.957800 648.000000
13.178900 730.000000
13.399900 650.000000
13.621000 682.000000
13.842000 721.000000
14.063100 660.000000
14.284100 687.000000
14.505200 633.000000
14.726200 669.000000
14.947300 673.000000
15.168300 641.000000
15.389400 691.000000
15.610400 676.000000
15.831500 653.000000
16.052500 706.000000
16.273600 651.000000
16.494600 607.000000
16.715700 657.000000
16.936700 654.000000
17.157800 658.000000
17.378800 642.000000
17.599800 619.000000
17.820900 688.000000
18.041900 668.000000
18.263000 730.000000
18.484000 704.000000
18.705100 726.000000
18.926100 700.000000
19.147200 665.000000
19.368200 693.000000
19.589300 693.000000
19.810300 787.000000
20.031400 727.000000
20.252400 752.000000
20.473500 759.000000
20.694500 700.000000
20.915600 744.000000
21.136600 823.000000
21.357700 757.000000
21.578700 795.000000
21.799800 821.000000
22.020800 682.000000
22.241900 736.000000
22.462900 741.000000
22.684000 780.000000
22.905000 802.000000
23.126100 799.000000
23.347100 739.000000
23.568200 748.000000
23.789200 767.000000
24.010300 858.000000
24.231300 704.000000
24.452400 782.000000
24.673400 765.000000
24.894500 770.000000
25.115500 775.000000
25.336600 769.000000
25.557600 892.000000
25.778700 811.000000
25.999700 799.000000
26.220800 755.000000
26.441800 712.000000
26.662900 817.000000
26.883900 837.000000
27.105000 825.000000
27.326000 833.000000
27.547100 698.000000
27.768100 671.000000
27.989200 629.000000
28.210200 578.000000
28.431300 607.000000
28.652300 611.000000
28.873400 574.000000
29.094400 532.000000
29.315500 517.000000
29.536500 531.000000
29.757600 566.000000
29.978600 588.000000
30.199700 566.000000
30.420700 512.000000
30.641800 478.000000
30.862800 481.000000
31.083900 497.000000
31.304900 530.000000
31.526000 535.000000
31.747000 512.000000
31.968100 450.000000
32.189100 429.000000
32.410200 462.000000
32.631300 504.000000
32.852300 492.000000
33.073300 476.000000
33.294400 455.000000
33.515500 519.000000
33.736500 503.000000
33.957500 521.000000
34.178600 607.000000
34.399700 658.000000
34.620700 560.000000
34.841700 577.000000
35.062800 626.000000
35.283900 640.000000
35.504900 692.000000
35.725900 661.000000
35.947000 637.000000
36.168100 523.000000
36.389100 584.000000
36.610100 563.000000
36.831200 617.000000
37.052300 637.000000
37.273300 599.000000
37.494300 564.000000
37.715400 493.000000
37.936500 576.000000
38.157500 597.000000
38.378500 558.000000
38.599600 577.000000
38.820700 551.000000
39.041700 551.000000
39.262700 586.000000
39.483800 654.000000
39.704900 678.000000
39.925900 656.000000
40.146900 586.000000
40.368000 604.000000
40.589100 560.000000
40.810100 605.000000
41.031100 654.000000
41.252200 607.000000
41.473300 581.000000
41.694300 564.000000
41.915300 590.000000
42.136400 631.000000
42.357500 633.000000
42.578500 619.000000
42.799500 632.000000
43.020600 588.000000
43.241600 683.000000
43.462700 662.000000
43.683700 689.000000
43.904800 687.000000
44.125800 606.000000
44.346900 580.000000
44.567900 746.000000
44.789000 878.000000
45.010000 904.000000
45.231100 759.000000
45.452100 623.000000
45.673200 573.000000
45.894200 575.000000
46.115300 638.000000
46.336300 672.000000
46.557400 587.000000
46.778400 554.000000
46.999500 574.000000
47.220500 594.000000
47.441600 595.000000
47.662600 626.000000
47.883700 618.000000
48.104800 634.000000
48.325800 538.000000
48.546800 595.000000
48.767900 584.000000
48.989000 578.000000
49.210000 576.000000
49.431000 517.000000
49.652100 548.000000
49.873200 553.000000
50.094200 574.000000
50.315200 594.000000
50.536300 589.000000
50.757400 616.000000
50.978400 614.000000
51.199400 608.000000
51.420500 622.000000
51.641600 639.000000
51.862600 595.000000
52.083600 604.000000
52.304700 543.000000
52.525800 635.000000
52.746800 632.000000
52.967800 661.000000
53.188900 661.000000
53.410000 632.000000
53.631000 618.000000
53.852000 667.000000
54.073100 652.000000
54.294200 655.000000
54.515200 634.000000
54.736200 576.000000
54.957300 565.000000
55.178400 604.000000
55.399400 656.000000
55.620400 595.000000
55.841500 606.000000
56.062600 559.000000
56.283600 570.000000
56.504600 635.000000
56.725700 625.000000
56.946800 579.000000
57.167800 546.000000
57.388800 571.000000
57.609900 568.000000
57.831000 556.000000
58.052000 608.000000
58.273000 592.000000
58.494100 582.000000
58.715200 573.000000
58.936200 650.000000
59.157200 596.000000
59.378300 593.000000
59.599400 536.000000
59.820400 605.000000
60.041400 646.000000
60.262500 647.000000
60.483600 719.000000
60.704600 652.000000
60.925600 644.000000
61.146700 638.000000
61.367800 632.000000
61.588800 707.000000
61.809800 594.000000
62.030900 584.000000
62.252000 586.000000
62.473000 570.000000
62.694000 634.000000
62.915100 604.000000
63.136200 597.000000
63.357200 578.000000
63.578200 546.000000
63.799300 570.000000
64.020300 560.000000
64.241400 544.000000
64.462500 541.000000
64.683500 531.000000
64.904600 550.000000
65.125600 529.000000
65.346600 544.000000
65.567700 555.000000
65.788700 555.000000
66.009800 515.000000
66.230900 494.000000
66.451900 536.000000
66.673000 529.000000
66.894000 560.000000
67.115000 511.000000
67.336100 501.000000
67.557100 543.000000
67.778200 534.000000
67.999300 553.000000
68.220300 540.000000
68.441300 510.000000
68.662400 507.000000
68.883400 454.000000
69.104500 522.000000
69.325500 490.000000
69.546600 501.000000
69.767700 444.000000
69.988700 473.000000
70.209700 463.000000
70.430800 518.000000
70.651800 464.000000
70.872900 480.000000
71.093900 506.000000
71.315000 471.000000
71.536100 495.000000
71.757100 484.000000
71.978100 481.000000
72.199200 463.000000
72.420200 455.000000
72.641300 462.000000
72.862300 472.000000
73.083400 476.000000
73.304500 444.000000
73.525500 472.000000
73.746500 449.000000
73.967600 462.000000
74.188600 453.000000
74.409700 461.000000
74.630700 453.000000
74.851800 476.000000
75.072900 483.000000
75.293900 455.000000
75.514900 489.000000
75.736000 466.000000
75.957000 475.000000
76.178100 453.000000
76.399200 483.000000
76.620200 480.000000
76.841300 481.000000
77.062300 503.000000
77.283300 448.000000
77.504400 433.000000
77.725400 493.000000
77.946500 478.000000
78.167600 458.000000
78.388600 471.000000
78.609700 465.000000
78.830700 473.000000
79.051700 480.000000
79.272800 496.000000
79.493800 482.000000
79.714900 469.000000
79.936000 451.000000
80.157000 451.000000
80.378100 476.000000
80.599100 454.000000
80.820100 442.000000
81.041200 437.000000
81.262200 469.000000
81.483300 473.000000
81.704400 446.000000
81.925400 499.000000
82.146500 431.000000
82.367500 446.000000
82.588500 446.000000
82.809600 452.000000
83.030600 456.000000
83.251700 413.000000
83.472800 440.000000
83.693800 457.000000
83.914900 445.000000
84.135900 423.000000
84.356900 435.000000
84.578000 440.000000
84.799000 439.000000
85.020100 415.000000
85.241200 406.000000
85.462200 451.000000
85.683300 441.000000
85.904300 427.000000
86.125300 436.000000
86.346400 466.000000
86.567400 392.000000
86.788500 396.000000
87.009600 387.000000
87.230600 414.000000
87.451700 419.000000
87.672700 393.000000
87.893700 391.000000
88.114800 382.000000
88.335800 416.000000
88.556900 431.000000
88.778000 425.000000
88.999000 398.000000
89.220100 391.000000
89.441100 393.000000
89.662100 392.000000
89.883200 384.000000
90.104200 402.000000
90.325300 387.000000
90.546400 384.000000
90.767400 366.000000
90.988500 345.000000
91.209500 412.000000
91.430500 378.000000
91.651600 391.000000
91.872600 367.000000
92.093700 419.000000
92.314800 406.000000
92.535800 402.000000
92.756900 386.000000
92.977900 368.000000
93.198900 401.000000
93.420000 396.000000
93.641000 378.000000
93.862100 385.000000
94.083200 389.000000
94.304200 378.000000
94.525200 359.000000
94.746300 385.000000
94.967300 376.000000
95.188400 357.000000
95.409400 349.000000
95.630500 365.000000
95.851600 380.000000
96.072600 381.000000
96.293600 365.000000
96.514700 369.000000
96.735700 373.000000
96.956800 327.000000
97.177800 341.000000
97.398900 372.000000
97.620000 349.000000
97.841000 339.000000
98.062000 329.000000
98.283100 375.000000
98.504100 379.000000
98.725200 361.000000
98.946200 321.000000
99.167300 332.000000
99.388400 337.000000
99.609400 386.000000
99.830400 341.000000
