5.014355630 777.0
5.031066899 739.0
5.047778168 690.0
5.064489437 746.0
5.081200706 734.0
5.097911975 751.0
5.114623244 716.0
5.131334513 748.0
5.148045782 745.0
5.164757051 743.0
5.181468320 704.0
5.198179589 823.0
5.214890858 722.0
5.231602127 750.0
5.248313396 738.0
5.265024665 734.0
5.281735934 696.0
5.298447203 741.0
5.315158472 781.0
5.331869741 762.0
5.348581010 697.0
5.365292279 762.0
5.382003548 781.0
5.398714816 769.0
5.415426085 756.0
5.432137354 755.0
5.448848623 791.0
5.465559892 745.0
5.482271161 735.0
5.498982430 785.0
5.515693699 780.0
5.532404968 788.0
5.549116237 761.0
5.565827506 732.0
5.582538775 735.0
5.599250044 804.0
5.615961313 780.0
5.632672582 792.0
5.649383851 816.0
5.666095120 803.0
5.682806389 804.0
5.699517658 803.0
5.716228927 821.0
5.732940196 819.0
5.749651465 766.0
5.766362734 829.0
5.783074003 788.0
5.799785272 789.0
5.816496541 811.0
5.833207810 766.0
5.849919079 777.0
5.866630348 801.0
5.883341617 795.0
5.900052886 782.0
5.916764155 814.0
5.933475424 772.0
5.950186693 804.0
5.966897962 820.0
5.983609231 764.0
6.000320500 764.0
6.017031769 779.0
6.033743038 801.0
6.050454307 822.0
6.067165576 783.0
6.083876845 777.0
6.100588114 826.0
6.117299383 789.0
6.134010651 830.0
6.150721920 818.0
6.167433189 738.0
6.184144458 791.0
6.200855727 763.0
6.217566996 779.0
6.234278265 779.0
6.250989534 764.0
6.267700803 814.0
6.284412072 785.0
6.301123341 788.0
6.317834610 815.0
6.334545879 783.0
6.351257148 794.0
6.367968417 753.0
6.384679686 726.0
6.401390955 780.0
6.418102224 794.0
6.434813493 788.0
6.451524762 788.0
6.468236031 775.0
6.484947300 818.0
6.501658569 818.0
6.518369838 761.0
6.535081107 810.0
6.551792376 771.0
6.568503645 798.0
6.585214914 778.0
6.601926183 804.0
6.618637452 739.0
6.635348721 763.0
6.652059990 784.0
6.668771259 755.0
6.685482528 814.0
6.702193797 813.0
6.718905066 740.0
6.735616335 748.0
6.752327604 794.0
6.769038873 809.0
6.785750142 777.0
6.802461411 820.0
6.819172680 795.0
6.835883949 810.0
6.852595218 781.0
6.869306486 757.0
6.886017755 753.0
6.902729024 740.0
6.919440293 776.0
6.936151562 712.0
6.952862831 749.0
6.969574100 738.0
6.986285369 743.0
7.002996638 722.0
7.019707907 712.0
7.036419176 665.0
7.053130445 689.0
7.069841714 733.0
7.086552983 702.0
7.103264252 698.0
7.119975521 675.0
7.136686790 688.0
7.153398059 708.0
7.170109328 680.0
7.186820597 703.0
7.203531866 717.0
7.220243135 709.0
7.236954404 673.0
7.253665673 702.0
7.270376942 666.0
7.287088211 665.0
7.303799480 620.0
7.320510749 689.0
7.337222018 636.0
7.353933287 662.0
7.370644556 635.0
7.387355825 644.0
7.404067094 608.0
7.420778363 619.0
7.437489632 622.0
7.454200901 646.0
7.470912170 591.0
7.487623439 578.0
7.504334708 610.0
7.521045977 637.0
7.537757246 628.0
7.554468515 616.0
7.571179784 554.0
7.587891053 563.0
7.604602321 603.0
7.621313590 571.0
7.638024859 637.0
7.654736128 578.0
7.671447397 545.0
7.688158666 549.0
7.704869935 619.0
7.721581204 560.0
7.738292473 559.0
7.755003742 541.0
7.771715011 571.0
7.788426280 558.0
7.805137549 534.0
7.821848818 519.0
7.838560087 491.0
7.855271356 531.0
7.871982625 503.0
7.888693894 526.0
7.905405163 498.0
7.922116432 524.0
7.938827701 530.0
7.955538970 502.0
7.972250239 495.0
7.988961508 502.0
8.005672777 480.0
8.022384046 482.0
8.039095315 481.0
8.055806584 481.0
8.072517853 458.0
8.089229122 479.0
8.105940391 451.0
8.122651660 459.0
8.139362929 448.0
8.156074198 459.0
8.172785467 439.0
8.189496736 453.0
8.206208005 397.0
8.222919274 410.0
8.239630543 432.0
8.256341812 396.0
8.273053081 425.0
8.289764350 430.0
8.306475619 385.0
8.323186888 428.0
8.339898156 409.0
8.356609425 397.0
8.373320694 366.0
8.390031963 382.0
8.406743232 412.0
8.423454501 435.0
8.440165770 387.0
8.456877039 395.0
8.473588308 388.0
8.490299577 390.0
8.507010846 358.0
8.523722115 378.0
8.540433384 382.0
8.557144653 393.0
8.573855922 376.0
8.590567191 394.0
8.607278460 336.0
8.623989729 380.0
8.640700998 352.0
8.657412267 331.0
8.674123536 353.0
8.690834805 355.0
8.707546074 361.0
8.724257343 343.0
8.740968612 365.0
8.757679881 341.0
8.774391150 333.0
8.791102419 358.0
8.807813688 357.0
8.824524957 321.0
8.841236226 320.0
8.857947495 335.0
8.874658764 336.0
8.891370033 296.0
8.908081302 317.0
8.924792571 313.0
8.941503840 305.0
8.958215109 299.0
8.974926378 311.0
8.991637647 320.0
9.008348916 296.0
9.025060185 304.0
9.041771454 252.0
9.058482723 316.0
9.075193992 301.0
9.091905260 298.0
9.108616529 295.0
9.125327798 312.0
9.142039067 278.0
9.158750336 285.0
9.175461605 302.0
9.192172874 262.0
9.208884143 286.0
9.225595412 292.0
9.242306681 310.0
9.259017950 249.0
9.275729219 285.0
9.292440488 304.0
9.309151757 276.0
9.325863026 281.0
9.342574295 290.0
9.359285564 271.0
9.375996833 274.0
9.392708102 271.0
9.409419371 295.0
9.426130640 269.0
9.442841909 239.0
9.459553178 252.0
9.476264447 285.0
9.492975716 299.0
9.509686985 243.0
9.526398254 283.0
9.543109523 242.0
9.559820792 266.0
9.576532061 238.0
9.593243330 238.0
9.609954599 270.0
9.626665868 264.0
9.643377137 253.0
9.660088406 240.0
9.676799675 204.0
9.693510944 271.0
9.710222213 253.0
9.726933482 259.0
9.743644751 262.0
9.760356020 225.0
9.777067289 255.0
9.793778558 249.0
9.810489827 245.0
9.827201095 230.0
9.843912364 234.0
9.860623633 247.0
9.877334902 272.0
9.894046171 263.0
9.910757440 256.0
9.927468709 266.0
9.944179978 248.0
9.960891247 241.0
9.977602516 248.0
9.994313785 216.0
10.011025054 261.0
10.027736323 253.0
10.044447592 223.0
10.061158861 243.0
10.077870130 249.0
10.094581399 268.0
10.111292668 275.0
10.128003937 261.0
10.144715206 269.0
10.161426475 270.0
10.178137744 235.0
10.194849013 256.0
10.211560282 227.0
10.228271551 228.0
10.244982820 243.0
10.261694089 237.0
10.278405358 250.0
10.295116627 264.0
10.311827896 218.0
10.328539165 259.0
10.345250434 238.0
10.361961703 255.0
10.378672972 215.0
10.395384241 257.0
10.412095510 237.0
10.428806779 271.0
10.445518048 243.0
10.462229317 275.0
10.478940586 272.0
10.495651855 265.0
10.512363124 278.0
10.529074393 262.0
10.545785662 226.0
10.562496930 246.0
10.579208199 253.0
10.595919468 252.0
10.612630737 249.0
10.629342006 263.0
10.646053275 265.0
10.662764544 248.0
10.679475813 240.0
10.696187082 249.0
10.712898351 275.0
10.729609620 277.0
10.746320889 281.0
10.763032158 250.0
10.779743427 250.0
10.796454696 256.0
10.813165965 241.0
10.829877234 264.0
10.846588503 276.0
10.863299772 267.0
10.880011041 241.0
10.896722310 245.0
10.913433579 223.0
10.930144848 278.0
10.946856117 239.0
10.963567386 259.0
10.980278655 260.0
10.996989924 253.0
11.013701193 256.0
11.030412462 274.0
11.047123731 259.0
11.063835000 311.0
11.080546269 273.0
11.097257538 268.0
11.113968807 276.0
11.130680076 287.0
11.147391345 288.0
11.164102614 266.0
11.180813883 257.0
11.197525152 257.0
11.214236421 259.0
11.230947690 267.0
11.247658959 286.0
11.264370228 255.0
11.281081497 259.0
11.297792765 253.0
11.314504034 267.0
11.331215303 270.0
11.347926572 262.0
11.364637841 272.0
11.381349110 266.0
11.398060379 253.0
11.414771648 259.0
11.431482917 281.0
11.448194186 260.0
11.464905455 265.0
11.481616724 247.0
11.498327993 241.0
11.515039262 280.0
11.531750531 276.0
11.548461800 289.0
11.565173069 254.0
11.581884338 262.0
11.598595607 255.0
11.615306876 281.0
11.632018145 244.0
11.648729414 277.0
11.665440683 263.0
11.682151952 263.0
11.698863221 276.0
11.715574490 277.0
11.732285759 278.0
11.748997028 304.0
11.765708297 261.0
11.782419566 289.0
11.799130835 262.0
11.815842104 266.0
11.832553373 275.0
11.849264642 298.0
11.865975911 309.0
11.882687180 284.0
11.899398449 260.0
11.916109718 253.0
11.932820987 261.0
11.949532256 273.0
11.966243525 283.0
11.982954794 304.0
11.999666063 306.0
12.016377332 293.0
12.033088601 285.0
12.049799869 285.0
12.066511138 266.0
12.083222407 259.0
12.099933676 264.0
12.116644945 244.0
12.133356214 265.0
12.150067483 240.0
12.166778752 256.0
12.183490021 272.0
12.200201290 285.0
12.216912559 289.0
12.233623828 250.0
12.250335097 250.0
12.267046366 280.0
12.283757635 288.0
12.300468904 255.0
12.317180173 290.0
12.333891442 280.0
12.350602711 278.0
12.367313980 261.0
12.384025249 285.0
12.400736518 278.0
12.417447787 277.0
12.434159056 277.0
12.450870325 267.0
12.467581594 262.0
12.484292863 283.0
12.501004132 258.0
12.517715401 260.0
12.534426670 269.0
12.551137939 296.0
12.567849208 250.0
12.584560477 271.0
12.601271746 298.0
12.617983015 291.0
12.634694284 268.0
12.651405553 256.0
12.668116822 268.0
12.684828091 247.0
12.701539360 261.0
12.718250629 281.0
12.734961898 252.0
12.751673167 227.0
12.768384436 256.0
12.785095704 254.0
12.801806973 256.0
12.818518242 300.0
12.835229511 260.0
12.851940780 265.0
12.868652049 283.0
12.885363318 283.0
12.902074587 275.0
12.918785856 275.0
12.935497125 275.0
12.952208394 307.0
12.968919663 292.0
12.985630932 288.0
13.002342201 248.0
13.019053470 274.0
13.035764739 262.0
13.052476008 282.0
13.069187277 286.0
13.085898546 308.0
13.102609815 279.0
13.119321084 269.0
13.136032353 291.0
13.152743622 282.0
13.169454891 281.0
13.186166160 287.0
13.202877429 310.0
13.219588698 262.0
13.236299967 282.0
13.253011236 277.0
13.269722505 277.0
13.286433774 265.0
13.303145043 310.0
13.319856312 271.0
13.336567581 253.0
13.353278850 287.0
13.369990119 251.0
13.386701388 304.0
13.403412657 284.0
13.420123926 276.0
13.436835195 251.0
13.453546464 280.0
13.470257733 278.0
13.486969002 288.0
13.503680271 299.0
13.520391539 272.0
13.537102808 276.0
13.553814077 288.0
13.570525346 268.0
13.587236615 311.0
13.603947884 315.0
13.620659153 314.0
13.637370422 268.0
13.654081691 287.0
13.670792960 291.0
13.687504229 306.0
13.704215498 295.0
13.720926767 329.0
13.737638036 321.0
13.754349305 286.0
13.771060574 283.0
13.787771843 265.0
13.804483112 289.0
13.821194381 298.0
13.837905650 290.0
13.854616919 261.0
13.871328188 271.0
13.888039457 247.0
13.904750726 249.0
13.921461995 260.0
13.938173264 294.0
13.954884533 269.0
13.971595802 275.0
13.988307071 273.0
14.005018340 300.0
14.021729609 271.0
14.038440878 280.0
14.055152147 246.0
14.071863416 261.0
14.088574685 289.0
14.105285954 290.0
14.121997223 276.0
14.138708492 272.0
14.155419761 283.0
14.172131030 280.0
14.188842299 318.0
14.205553568 314.0
14.222264837 306.0
14.238976106 278.0
14.255687374 265.0
14.272398643 285.0
14.289109912 266.0
14.305821181 313.0
14.322532450 251.0
14.339243719 298.0
14.355954988 308.0
14.372666257 299.0
14.389377526 291.0
14.406088795 281.0
14.422800064 277.0
14.439511333 308.0
14.456222602 304.0
14.472933871 277.0
14.489645140 302.0
14.506356409 322.0
14.523067678 308.0
14.539778947 322.0
14.556490216 327.0
14.573201485 307.0
14.589912754 309.0
14.606624023 342.0
14.623335292 310.0
14.640046561 301.0
14.656757830 324.0
14.673469099 351.0
14.690180368 351.0
14.706891637 343.0
14.723602906 361.0
14.740314175 403.0
14.757025444 420.0
14.773736713 460.0
14.790447982 458.0
14.807159251 528.0
14.823870520 581.0
14.840581789 631.0
14.857293058 703.0
14.874004327 814.0
14.890715596 836.0
14.907426865 849.0
14.924138134 730.0
14.940849403 585.0
14.957560672 488.0
14.974271941 353.0
14.990983209 360.0
15.007694478 343.0
15.024405747 303.0
15.041117016 302.0
15.057828285 315.0
15.074539554 324.0
15.091250823 297.0
15.107962092 308.0
15.124673361 298.0
15.141384630 297.0
15.158095899 319.0
15.174807168 288.0
15.191518437 321.0
15.208229706 321.0
15.224940975 307.0
15.241652244 294.0
15.258363513 339.0
15.275074782 325.0
15.291786051 315.0
15.308497320 329.0
15.325208589 311.0
15.341919858 302.0
15.358631127 303.0
15.375342396 329.0
15.392053665 314.0
15.408764934 277.0
15.425476203 307.0
15.442187472 328.0
15.458898741 322.0
15.475610010 332.0
15.492321279 287.0
15.509032548 294.0
15.525743817 286.0
15.542455086 285.0
15.559166355 336.0
15.575877624 312.0
15.592588893 269.0
15.609300162 301.0
15.626011431 306.0
15.642722700 287.0
15.659433969 293.0
15.676145238 270.0
15.692856507 312.0
15.709567776 301.0
15.726279045 311.0
15.742990313 322.0
15.759701582 304.0
15.776412851 326.0
15.793124120 312.0
15.809835389 295.0
15.826546658 292.0
15.843257927 289.0
15.859969196 334.0
15.876680465 318.0
15.893391734 271.0
15.910103003 296.0
15.926814272 307.0
15.943525541 273.0
15.960236810 333.0
15.976948079 309.0
15.993659348 311.0
16.010370617 316.0
16.027081886 291.0
16.043793155 331.0
16.060504424 323.0
16.077215693 299.0
16.093926962 297.0
16.110638231 312.0
16.127349500 304.0
16.144060769 316.0
16.160772038 290.0
16.177483307 329.0
16.194194576 275.0
16.210905845 292.0
16.227617114 337.0
16.244328383 292.0
16.261039652 317.0
16.277750921 338.0
16.294462190 318.0
16.311173459 304.0
16.327884728 295.0
16.344595997 309.0
16.361307266 349.0
16.378018535 305.0
16.394729804 309.0
16.411441073 304.0
16.428152342 298.0
16.444863611 305.0
16.461574880 312.0
16.478286148 298.0
16.494997417 298.0
16.511708686 303.0
16.528419955 312.0
16.545131224 301.0
16.561842493 308.0
16.578553762 287.0
16.595265031 313.0
16.611976300 317.0
16.628687569 302.0
16.645398838 300.0
16.662110107 316.0
16.678821376 316.0
16.695532645 310.0
16.712243914 313.0
16.728955183 293.0
16.745666452 289.0
16.762377721 347.0
16.779088990 332.0
16.795800259 306.0
16.812511528 278.0
16.829222797 284.0
16.845934066 307.0
16.862645335 332.0
16.879356604 334.0
16.896067873 277.0
16.912779142 278.0
16.929490411 274.0
16.946201680 303.0
16.962912949 302.0
16.979624218 311.0
16.996335487 280.0
17.013046756 323.0
17.029758025 310.0
17.046469294 311.0
17.063180563 313.0
17.079891832 317.0
17.096603101 315.0
17.113314370 319.0
17.130025639 296.0
17.146736908 306.0
17.163448177 311.0
17.180159446 301.0
17.196870715 313.0
17.213581983 310.0
17.230293252 312.0
17.247004521 331.0
17.263715790 314.0
17.280427059 341.0
17.297138328 329.0
17.313849597 343.0
17.330560866 338.0
17.347272135 339.0
17.363983404 305.0
17.380694673 330.0
17.397405942 378.0
17.414117211 334.0
17.430828480 353.0
17.447539749 372.0
17.464251018 414.0
17.480962287 464.0
17.497673556 482.0
17.514384825 501.0
17.531096094 561.0
17.547807363 601.0
17.564518632 605.0
17.581229901 673.0
17.597941170 615.0
17.614652439 580.0
17.631363708 486.0
17.648074977 449.0
17.664786246 415.0
17.681497515 399.0
17.698208784 348.0
17.714920053 329.0
17.731631322 309.0
17.748342591 368.0
17.765053860 314.0
17.781765129 352.0
17.798476398 341.0
17.815187667 330.0
17.831898936 356.0
17.848610205 324.0
17.865321474 319.0
17.882032743 335.0
17.898744012 323.0
17.915455281 322.0
17.932166550 304.0
17.948877818 322.0
17.965589087 324.0
17.982300356 348.0
17.999011625 298.0
18.015722894 326.0
18.032434163 313.0
18.049145432 314.0
18.065856701 289.0
18.082567970 297.0
18.099279239 320.0
18.115990508 310.0
18.132701777 317.0
18.149413046 323.0
18.166124315 313.0
18.182835584 297.0
18.199546853 330.0
18.216258122 315.0
18.232969391 313.0
18.249680660 320.0
18.266391929 359.0
18.283103198 313.0
18.299814467 347.0
18.316525736 293.0
18.333237005 266.0
18.349948274 335.0
18.366659543 282.0
18.383370812 350.0
18.400082081 317.0
18.416793350 333.0
18.433504619 300.0
18.450215888 321.0
18.466927157 323.0
18.483638426 319.0
18.500349695 319.0
18.517060964 288.0
18.533772233 315.0
18.550483502 313.0
18.567194771 319.0
18.583906040 332.0
18.600617309 323.0
18.617328578 341.0
18.634039847 327.0
18.650751116 311.0
18.667462385 305.0
18.684173654 304.0
18.700884922 322.0
18.717596191 302.0
18.734307460 285.0
18.751018729 338.0
18.767729998 301.0
18.784441267 292.0
18.801152536 325.0
18.817863805 315.0
18.834575074 323.0
18.851286343 330.0
18.867997612 327.0
18.884708881 306.0
18.901420150 296.0
18.918131419 283.0
18.934842688 316.0
18.951553957 290.0
18.968265226 286.0
18.984976495 338.0
19.001687764 323.0
19.018399033 279.0
19.035110302 316.0
19.051821571 307.0
19.068532840 361.0
19.085244109 328.0
19.101955378 328.0
19.118666647 348.0
19.135377916 327.0
19.152089185 335.0
19.168800454 336.0
19.185511723 333.0
19.202222992 337.0
19.218934261 366.0
19.235645530 377.0
19.252356799 407.0
19.269068068 455.0
19.285779337 505.0
19.302490606 451.0
19.319201875 499.0
19.335913144 442.0
19.352624413 450.0
19.369335682 405.0
19.386046951 392.0
19.402758220 345.0
19.419469489 353.0
19.436180757 331.0
19.452892026 322.0
19.469603295 301.0
19.486314564 268.0
19.503025833 271.0
19.519737102 316.0
19.536448371 300.0
19.553159640 335.0
19.569870909 303.0
19.586582178 303.0
19.603293447 333.0
19.620004716 312.0
19.636715985 338.0
19.653427254 332.0
19.670138523 310.0
19.686849792 334.0
19.703561061 307.0
19.720272330 328.0
19.736983599 357.0
19.753694868 325.0
19.770406137 344.0
19.787117406 376.0
19.803828675 342.0
19.820539944 373.0
19.837251213 346.0
19.853962482 362.0
19.870673751 403.0
19.887385020 420.0
19.904096289 446.0
19.920807558 414.0
19.937518827 445.0
19.954230096 491.0
19.970941365 524.0
19.987652634 561.0
20.004363903 598.0
20.021075172 616.0
20.037786441 632.0
20.054497710 589.0
20.071208979 623.0
20.087920248 533.0
20.104631517 565.0
20.121342786 565.0
20.138054055 615.0
20.154765324 712.0
20.171476592 889.0
20.188187861 985.0
20.204899130 1210.0
20.221610399 1388.0
20.238321668 1752.0
20.255032937 2124.0
20.271744206 2660.0
20.288455475 3270.0
20.305166744 3787.0
20.321878013 3980.0
20.338589282 3942.0
20.355300551 3405.0
20.372011820 2949.0
20.388723089 2522.0
20.405434358 2182.0
20.422145627 2039.0
20.438856896 1998.0
20.455568165 1954.0
20.472279434 2077.0
20.488990703 2142.0
20.505701972 1897.0
20.522413241 1652.0
20.539124510 1309.0
20.555835779 989.0
20.572547048 788.0
20.589258317 609.0
20.605969586 486.0
20.622680855 447.0
20.639392124 391.0
20.656103393 419.0
20.672814662 353.0
20.689525931 358.0
20.706237200 379.0
20.722948469 386.0
20.739659738 370.0
20.756371007 355.0
20.773082276 348.0
20.789793545 351.0
20.806504814 334.0
20.823216083 332.0
20.839927352 355.0
20.856638621 369.0
20.873349890 351.0
20.890061159 341.0
20.906772427 330.0
20.923483696 312.0
20.940194965 343.0
20.956906234 341.0
20.973617503 307.0
20.990328772 344.0
21.007040041 360.0
21.023751310 310.0
21.040462579 328.0
21.057173848 309.0
21.073885117 362.0
21.090596386 334.0
21.107307655 338.0
21.124018924 367.0
21.140730193 352.0
21.157441462 346.0
21.174152731 339.0
21.190864000 337.0
21.207575269 295.0
21.224286538 319.0
21.240997807 324.0
21.257709076 379.0
21.274420345 338.0
21.291131614 303.0
21.307842883 347.0
21.324554152 330.0
21.341265421 319.0
21.357976690 349.0
21.374687959 377.0
21.391399228 439.0
21.408110497 466.0
21.424821766 438.0
21.441533035 437.0
21.458244304 451.0
21.474955573 384.0
21.491666842 380.0
21.508378111 389.0
21.525089380 379.0
21.541800649 351.0
21.558511918 326.0
21.575223187 325.0
21.591934456 312.0
21.608645725 309.0
21.625356994 314.0
21.642068262 311.0
21.658779531 324.0
21.675490800 326.0
21.692202069 298.0
21.708913338 296.0
21.725624607 312.0
21.742335876 352.0
21.759047145 310.0
21.775758414 300.0
21.792469683 333.0
21.809180952 305.0
21.825892221 318.0
21.842603490 308.0
21.859314759 334.0
21.876026028 332.0
21.892737297 355.0
21.909448566 329.0
21.926159835 341.0
21.942871104 333.0
21.959582373 349.0
21.976293642 320.0
21.993004911 312.0
22.009716180 341.0
22.026427449 304.0
22.043138718 307.0
22.059849987 326.0
22.076561256 335.0
22.093272525 312.0
22.109983794 322.0
22.126695063 332.0
22.143406332 334.0
22.160117601 335.0
22.176828870 357.0
22.193540139 343.0
22.210251408 330.0
22.226962677 340.0
22.243673946 376.0
22.260385215 384.0
22.277096484 392.0
22.293807753 420.0
22.310519022 448.0
22.327230291 489.0
22.343941560 491.0
22.360652829 580.0
22.377364098 604.0
22.394075366 637.0
22.410786635 839.0
22.427497904 983.0
22.444209173 1020.0
22.460920442 1085.0
22.477631711 1160.0
22.494342980 1012.0
22.511054249 933.0
22.527765518 764.0
22.544476787 706.0
22.561188056 628.0
22.577899325 500.0
22.594610594 429.0
22.611321863 456.0
22.628033132 406.0
22.644744401 412.0
22.661455670 374.0
22.678166939 343.0
22.694878208 397.0
22.711589477 376.0
22.728300746 357.0
22.745012015 334.0
22.761723284 375.0
22.778434553 391.0
22.795145822 367.0
22.811857091 371.0
22.828568360 365.0
22.845279629 366.0
22.861990898 379.0
22.878702167 414.0
22.895413436 409.0
22.912124705 429.0
22.928835974 455.0
22.945547243 504.0
22.962258512 527.0
22.978969781 565.0
22.995681050 680.0
23.012392319 757.0
23.029103588 871.0
23.045814857 1025.0
23.062526126 1208.0
23.079237395 1435.0
23.095948664 1542.0
23.112659933 1540.0
23.129371201 1406.0
23.146082470 1201.0
23.162793739 1044.0
23.179505008 933.0
23.196216277 718.0
23.212927546 657.0
23.229638815 558.0
23.246350084 523.0
23.263061353 487.0
23.279772622 484.0
23.296483891 490.0
23.313195160 530.0
23.329906429 564.0
23.346617698 682.0
23.363328967 752.0
23.380040236 732.0
23.396751505 902.0
23.413462774 924.0
23.430174043 1120.0
23.446885312 1081.0
23.463596581 1050.0
23.480307850 946.0
23.497019119 842.0
23.513730388 771.0
23.530441657 674.0
23.547152926 570.0
23.563864195 569.0
23.580575464 561.0
23.597286733 484.0
23.613998002 502.0
23.630709271 493.0
23.647420540 462.0
23.664131809 469.0
23.680843078 523.0
23.697554347 514.0
23.714265616 562.0
23.730976885 586.0
23.747688154 629.0
23.764399423 604.0
23.781110692 587.0
23.797821961 562.0
23.814533230 576.0
23.831244499 511.0
23.847955768 443.0
23.864667036 411.0
23.881378305 409.0
23.898089574 374.0
23.914800843 375.0
23.931512112 360.0
23.948223381 326.0
23.964934650 332.0
23.981645919 342.0
23.998357188 357.0
24.015068457 365.0
24.031779726 323.0
24.048490995 331.0
24.065202264 346.0
24.081913533 379.0
24.098624802 380.0
24.115336071 399.0
24.132047340 360.0
24.148758609 359.0
24.165469878 394.0
24.182181147 460.0
24.198892416 502.0
24.215603685 499.0
24.232314954 522.0
24.249026223 561.0
24.265737492 501.0
24.282448761 521.0
24.299160030 515.0
24.315871299 471.0
24.332582568 411.0
24.349293837 426.0
24.366005106 419.0
24.382716375 347.0
24.399427644 343.0
24.416138913 351.0
24.432850182 345.0
24.449561451 338.0
24.466272720 329.0
24.482983989 322.0
24.499695258 325.0
24.516406527 305.0
24.533117796 358.0
24.549829065 285.0
24.566540334 311.0
24.583251603 330.0
24.599962871 296.0
24.616674140 301.0
24.633385409 291.0
24.650096678 309.0
24.666807947 325.0
24.683519216 310.0
24.700230485 308.0
24.716941754 298.0
24.733653023 289.0
24.750364292 301.0
24.767075561 306.0
24.783786830 317.0
24.800498099 303.0
24.817209368 287.0
24.833920637 301.0
24.850631906 276.0
24.867343175 306.0
24.884054444 319.0
24.900765713 298.0
24.917476982 324.0
24.934188251 311.0
24.950899520 279.0
24.967610789 287.0
24.984322058 303.0
25.001033327 309.0
25.017744596 303.0
25.034455865 273.0
25.051167134 296.0
25.067878403 304.0
25.084589672 299.0
25.101300941 259.0
25.118012210 296.0
25.134723479 306.0
25.151434748 301.0
25.168146017 299.0
25.184857286 282.0
25.201568555 274.0
25.218279824 283.0
25.234991093 316.0
25.251702362 315.0
25.268413631 274.0
25.285124900 289.0
25.301836169 302.0
25.318547438 296.0
25.335258706 312.0
25.351969975 299.0
25.368681244 308.0
25.385392513 312.0
25.402103782 314.0
25.418815051 323.0
25.435526320 333.0
25.452237589 336.0
25.468948858 328.0
25.485660127 327.0
25.502371396 347.0
25.519082665 314.0
25.535793934 322.0
25.552505203 308.0
25.569216472 313.0
25.585927741 308.0
25.602639010 302.0
25.619350279 295.0
25.636061548 283.0
25.652772817 309.0
25.669484086 333.0
25.686195355 294.0
25.702906624 291.0
25.719617893 287.0
25.736329162 274.0
25.753040431 311.0
25.769751700 309.0
25.786462969 304.0
25.803174238 316.0
25.819885507 306.0
25.836596776 286.0
25.853308045 295.0
25.870019314 341.0
25.886730583 327.0
25.903441852 316.0
25.920153121 327.0
25.936864390 343.0
25.953575659 326.0
25.970286928 381.0
25.986998197 355.0
26.003709466 376.0
26.020420735 354.0
26.037132004 338.0
26.053843273 319.0
26.070554542 290.0
26.087265810 316.0
26.103977079 320.0
26.120688348 297.0
26.137399617 290.0
26.154110886 323.0
26.170822155 307.0
26.187533424 336.0
26.204244693 322.0
26.220955962 341.0
26.237667231 309.0
26.254378500 307.0
26.271089769 326.0
26.287801038 348.0
26.304512307 324.0
26.321223576 324.0
26.337934845 310.0
26.354646114 318.0
26.371357383 308.0
26.388068652 294.0
26.404779921 301.0
26.421491190 327.0
26.438202459 304.0
26.454913728 321.0
26.471624997 326.0
26.488336266 315.0
26.505047535 301.0
26.521758804 298.0
26.538470073 316.0
26.555181342 269.0
26.571892611 317.0
26.588603880 319.0
26.605315149 311.0
26.622026418 314.0
26.638737687 314.0
26.655448956 330.0
26.672160225 287.0
26.688871494 297.0
26.705582763 324.0
26.722294032 350.0
26.739005301 348.0
26.755716570 369.0
26.772427839 356.0
26.789139108 348.0
26.805850377 381.0
26.822561645 354.0
26.839272914 400.0
26.855984183 417.0
26.872695452 410.0
26.889406721 465.0
26.906117990 433.0
26.922829259 499.0
26.939540528 539.0
26.956251797 550.0
26.972963066 515.0
26.989674335 512.0
27.006385604 463.0
27.023096873 443.0
27.039808142 415.0
27.056519411 423.0
27.073230680 399.0
27.089941949 399.0
27.106653218 400.0
27.123364487 353.0
27.140075756 392.0
27.156787025 372.0
27.173498294 375.0
27.190209563 340.0
27.206920832 364.0
27.223632101 362.0
27.240343370 335.0
27.257054639 352.0
27.273765908 371.0
27.290477177 363.0
27.307188446 388.0
27.323899715 416.0
27.340610984 412.0
27.357322253 371.0
27.374033522 358.0
27.390744791 376.0
27.407456060 354.0
27.424167329 346.0
27.440878598 388.0
27.457589867 387.0
27.474301136 370.0
27.491012405 392.0
27.507723674 363.0
27.524434943 355.0
27.541146212 391.0
27.557857480 361.0
27.574568749 336.0
27.591280018 340.0
27.607991287 341.0
27.624702556 325.0
27.641413825 305.0
27.658125094 327.0
27.674836363 322.0
27.691547632 358.0
27.708258901 309.0
27.724970170 330.0
27.741681439 320.0
27.758392708 318.0
27.775103977 351.0
27.791815246 323.0
27.808526515 317.0
27.825237784 318.0
27.841949053 359.0
27.858660322 325.0
27.875371591 328.0
27.892082860 311.0
27.908794129 320.0
27.925505398 308.0
27.942216667 302.0
27.958927936 332.0
27.975639205 315.0
27.992350474 335.0
28.009061743 318.0
28.025773012 349.0
28.042484281 354.0
28.059195550 350.0
28.075906819 337.0
28.092618088 358.0
28.109329357 338.0
28.126040626 372.0
28.142751895 340.0
28.159463164 321.0
28.176174433 343.0
28.192885702 373.0
28.209596971 351.0
28.226308240 354.0
28.243019509 385.0
28.259730778 401.0
28.276442047 373.0
28.293153315 356.0
28.309864584 359.0
28.326575853 395.0
28.343287122 420.0
28.359998391 427.0
28.376709660 479.0
28.393420929 470.0
28.410132198 525.0
28.426843467 565.0
28.443554736 598.0
28.460266005 636.0
28.476977274 714.0
28.493688543 733.0
28.510399812 818.0
28.527111081 804.0
28.543822350 908.0
28.560533619 1037.0
28.577244888 1225.0
28.593956157 1494.0
28.610667426 1663.0
28.627378695 1804.0
28.644089964 2134.0
28.660801233 2474.0
28.677512502 2872.0
28.694223771 3534.0
28.710935040 4396.0
28.727646309 5390.0
28.744357578 6305.0
28.761068847 6905.0
28.777780116 6508.0
28.794491385 5534.0
28.811202654 4757.0
28.827913923 4072.0
28.844625192 3620.0
28.861336461 2782.0
28.878047730 2092.0
28.894758999 1476.0
28.911470268 1229.0
28.928181537 1057.0
28.944892806 846.0
28.961604075 795.0
28.978315344 760.0
28.995026613 701.0
29.011737882 596.0
29.028449151 567.0
29.045160419 550.0
29.061871688 556.0
29.078582957 528.0
29.095294226 509.0
29.112005495 511.0
29.128716764 477.0
29.145428033 473.0
29.162139302 480.0
29.178850571 496.0
29.195561840 469.0
29.212273109 465.0
29.228984378 456.0
29.245695647 480.0
29.262406916 504.0
29.279118185 512.0
29.295829454 519.0
29.312540723 517.0
29.329251992 545.0
29.345963261 563.0
29.362674530 552.0
29.379385799 591.0
29.396097068 704.0
29.412808337 705.0
29.429519606 729.0
29.446230875 870.0
29.462942144 887.0
29.479653413 975.0
29.496364682 1196.0
29.513075951 1372.0
29.529787220 1566.0
29.546498489 2019.0
29.563209758 2535.0
29.579921027 3115.0
29.596632296 4005.0
29.613343565 4937.0
29.630054834 5909.0
29.646766103 6699.0
29.663477372 6438.0
29.680188641 5637.0
29.696899910 4577.0
29.713611179 4165.0
29.730322448 3615.0
29.747033717 3006.0
29.763744986 2147.0
29.780456254 1538.0
29.797167523 1084.0
29.813878792 940.0
29.830590061 831.0
29.847301330 712.0
29.864012599 742.0
29.880723868 693.0
29.897435137 654.0
29.914146406 586.0
29.930857675 630.0
29.947568944 634.0
29.964280213 644.0
29.980991482 716.0
29.997702751 706.0
30.014414020 703.0
30.031125289 733.0
30.047836558 760.0
30.064547827 717.0
30.081259096 796.0
30.097970365 887.0
30.114681634 907.0
30.131392903 1059.0
30.148104172 1186.0
30.164815441 1368.0
30.181526710 1579.0
30.198237979 1983.0
30.214949248 2468.0
30.231660517 3081.0
30.248371786 3647.0
30.265083055 4515.0
30.281794324 5051.0
30.298505593 5225.0
30.315216862 4666.0
30.331928131 3801.0
30.348639400 3417.0
30.365350669 3123.0
30.382061938 2662.0
30.398773207 1926.0
30.415484476 1464.0
30.432195745 1097.0
30.448907014 908.0
30.465618283 813.0
30.482329552 724.0
30.499040821 701.0
30.515752089 683.0
30.532463358 625.0
30.549174627 568.0
30.565885896 617.0
30.582597165 556.0
30.599308434 563.0
30.616019703 452.0
30.632730972 456.0
30.649442241 435.0
30.666153510 459.0
30.682864779 423.0
30.699576048 435.0
30.716287317 423.0
30.732998586 388.0
30.749709855 378.0
30.766421124 373.0
30.783132393 350.0
30.799843662 363.0
30.816554931 378.0
30.833266200 381.0
30.849977469 390.0
30.866688738 366.0
30.883400007 354.0
30.900111276 331.0
30.916822545 349.0
30.933533814 357.0
30.950245083 350.0
30.966956352 362.0
30.983667621 328.0
31.000378890 307.0
31.017090159 331.0
31.033801428 319.0
31.050512697 280.0
31.067223966 320.0
31.083935235 321.0
31.100646504 308.0
31.117357773 301.0
31.134069042 344.0
31.150780311 345.0
31.167491580 322.0
31.184202849 335.0
31.200914118 334.0
31.217625387 343.0
31.234336656 357.0
31.251047924 318.0
31.267759193 296.0
31.284470462 327.0
31.301181731 328.0
31.317893000 355.0
31.334604269 350.0
31.351315538 333.0
31.368026807 300.0
31.384738076 323.0
31.401449345 328.0
31.418160614 311.0
31.434871883 342.0
31.451583152 340.0
31.468294421 346.0
31.485005690 312.0
31.501716959 323.0
31.518428228 345.0
31.535139497 314.0
31.551850766 324.0
31.568562035 318.0
31.585273304 344.0
31.601984573 334.0
31.618695842 314.0
31.635407111 336.0
31.652118380 290.0
31.668829649 303.0
31.685540918 320.0
31.702252187 367.0
31.718963456 340.0
31.735674725 344.0
31.752385994 329.0
31.769097263 361.0
31.785808532 319.0
31.802519801 308.0
31.819231070 298.0
31.835942339 271.0
31.852653608 343.0
31.869364877 320.0
31.886076146 323.0
31.902787415 351.0
31.919498684 335.0
31.936209953 312.0
31.952921222 308.0
31.969632491 326.0
31.986343759 347.0
32.003055028 360.0
32.019766297 312.0
32.036477566 320.0
32.053188835 352.0
32.069900104 324.0
32.086611373 289.0
32.103322642 268.0
32.120033911 306.0
32.136745180 282.0
32.153456449 319.0
32.170167718 318.0
32.186878987 328.0
32.203590256 361.0
32.220301525 283.0
32.237012794 298.0
32.253724063 327.0
32.270435332 299.0
32.287146601 334.0
32.303857870 311.0
32.320569139 293.0
32.337280408 319.0
32.353991677 265.0
32.370702946 312.0
32.387414215 325.0
32.404125484 285.0
32.420836753 297.0
32.437548022 272.0
32.454259291 282.0
32.470970560 322.0
32.487681829 329.0
32.504393098 337.0
32.521104367 305.0
32.537815636 306.0
32.554526905 322.0
32.571238174 336.0
32.587949443 347.0
32.604660712 322.0
32.621371981 337.0
32.638083250 328.0
32.654794519 357.0
32.671505788 311.0
32.688217057 325.0
32.704928326 333.0
32.721639595 302.0
32.738350863 286.0
32.755062132 319.0
32.771773401 276.0
32.788484670 294.0
32.805195939 307.0
32.821907208 305.0
32.838618477 345.0
32.855329746 311.0
32.872041015 320.0
32.888752284 320.0
32.905463553 301.0
32.922174822 330.0
32.938886091 341.0
32.955597360 326.0
32.972308629 331.0
32.989019898 332.0
33.005731167 345.0
33.022442436 303.0
33.039153705 304.0
33.055864974 316.0
33.072576243 297.0
33.089287512 367.0
33.105998781 330.0
33.122710050 374.0
33.139421319 337.0
33.156132588 343.0
33.172843857 382.0
33.189555126 367.0
33.206266395 420.0
33.222977664 445.0
33.239688933 388.0
33.256400202 403.0
33.273111471 405.0
33.289822740 431.0
33.306534009 390.0
33.323245278 394.0
33.339956547 413.0
33.356667816 372.0
33.373379085 364.0
33.390090354 348.0
33.406801623 317.0
33.423512892 316.0
33.440224161 326.0
33.456935430 310.0
33.473646698 297.0
33.490357967 305.0
33.507069236 319.0
33.523780505 310.0
33.540491774 313.0
33.557203043 338.0
33.573914312 359.0
33.590625581 320.0
33.607336850 337.0
33.624048119 356.0
33.640759388 358.0
33.657470657 339.0
33.674181926 339.0
33.690893195 372.0
33.707604464 389.0
33.724315733 413.0
33.741027002 425.0
33.757738271 479.0
33.774449540 462.0
33.791160809 453.0
33.807872078 502.0
33.824583347 487.0
33.841294616 468.0
33.858005885 440.0
33.874717154 471.0
33.891428423 456.0
33.908139692 404.0
33.924850961 392.0
33.941562230 417.0
33.958273499 388.0
33.974984768 363.0
33.991696037 343.0
34.008407306 348.0
34.025118575 350.0
34.041829844 357.0
34.058541113 365.0
34.075252382 395.0
34.091963651 365.0
34.108674920 398.0
34.125386189 373.0
34.142097458 388.0
34.158808727 368.0
34.175519996 351.0
34.192231265 370.0
34.208942533 355.0
34.225653802 353.0
34.242365071 411.0
34.259076340 377.0
34.275787609 384.0
34.292498878 358.0
34.309210147 399.0
34.325921416 384.0
34.342632685 438.0
34.359343954 476.0
34.376055223 539.0
34.392766492 577.0
34.409477761 611.0
34.426189030 645.0
34.442900299 676.0
34.459611568 636.0
34.476322837 560.0
34.493034106 530.0
34.509745375 556.0
34.526456644 499.0
34.543167913 450.0
34.559879182 451.0
34.576590451 447.0
34.593301720 442.0
34.610012989 475.0
34.626724258 401.0
34.643435527 383.0
34.660146796 369.0
34.676858065 410.0
34.693569334 390.0
34.710280603 370.0
34.726991872 386.0
34.743703141 385.0
34.760414410 360.0
34.777125679 359.0
34.793836948 341.0
34.810548217 370.0
34.827259486 344.0
34.843970755 339.0
34.860682024 349.0
34.877393293 383.0
34.894104562 387.0
34.910815831 390.0
34.927527100 425.0
34.944238368 407.0
34.960949637 458.0
34.977660906 469.0
34.994372175 485.0
35.011083444 526.0
35.027794713 599.0
35.044505982 690.0
35.061217251 767.0
35.077928520 961.0
35.094639789 1172.0
35.111351058 1456.0
35.128062327 1684.0
35.144773596 1939.0
35.161484865 2193.0
35.178196134 2331.0
35.194907403 2197.0
35.211618672 2142.0
35.228329941 2008.0
35.245041210 2034.0
35.261752479 1888.0
35.278463748 1909.0
35.295175017 1745.0
35.311886286 1726.0
35.328597555 1746.0
35.345308824 1748.0
35.362020093 1932.0
35.378731362 2230.0
35.395442631 2616.0
35.412153900 3171.0
35.428865169 3577.0
35.445576438 4114.0
35.462287707 4353.0
35.478998976 4498.0
35.495710245 4119.0
35.512421514 3683.0
35.529132783 3296.0
35.545844052 2932.0
35.562555321 2594.0
35.579266590 2261.0
35.595977859 1916.0
35.612689128 1420.0
35.629400397 1072.0
35.646111666 923.0
35.662822935 714.0
35.679534204 660.0
35.696245472 578.0
35.712956741 488.0
35.729668010 490.0
35.746379279 477.0
35.763090548 434.0
35.779801817 479.0
35.796513086 464.0
35.813224355 474.0
35.829935624 442.0
35.846646893 418.0
35.863358162 384.0
35.880069431 349.0
35.896780700 408.0
35.913491969 399.0
35.930203238 390.0
35.946914507 344.0
35.963625776 355.0
35.980337045 342.0
35.997048314 333.0
36.013759583 372.0
36.030470852 374.0
36.047182121 354.0
36.063893390 376.0
36.080604659 382.0
36.097315928 379.0
36.114027197 380.0
36.130738466 436.0
36.147449735 420.0
36.164161004 437.0
36.180872273 469.0
36.197583542 459.0
36.214294811 477.0
36.231006080 471.0
36.247717349 418.0
36.264428618 428.0
36.281139887 428.0
36.297851156 425.0
36.314562425 401.0
36.331273694 421.0
36.347984963 403.0
36.364696232 402.0
36.381407501 422.0
36.398118770 412.0
36.414830039 420.0
36.431541307 411.0
36.448252576 430.0
36.464963845 402.0
36.481675114 415.0
36.498386383 455.0
36.515097652 439.0
36.531808921 466.0
36.548520190 470.0
36.565231459 514.0
36.581942728 536.0
36.598653997 573.0
36.615365266 649.0
36.632076535 730.0
36.648787804 734.0
36.665499073 826.0
36.682210342 852.0
36.698921611 868.0
36.715632880 874.0
36.732344149 883.0
36.749055418 984.0
36.765766687 1053.0
36.782477956 1003.0
36.799189225 1016.0
36.815900494 896.0
36.832611763 856.0
36.849323032 744.0
36.866034301 683.0
36.882745570 701.0
36.899456839 604.0
36.916168108 572.0
36.932879377 528.0
36.949590646 491.0
36.966301915 498.0
36.983013184 415.0
36.999724453 461.0
37.016435722 404.0
37.033146991 427.0
37.049858260 403.0
37.066569529 429.0
37.083280798 434.0
37.099992067 461.0
37.116703336 445.0
37.133414605 474.0
37.150125874 493.0
37.166837142 447.0
37.183548411 514.0
37.200259680 532.0
37.216970949 680.0
37.233682218 738.0
37.250393487 852.0
37.267104756 927.0
37.283816025 1062.0
37.300527294 1056.0
37.317238563 992.0
37.333949832 939.0
37.350661101 991.0
37.367372370 1111.0
37.384083639 1156.0
37.400794908 1170.0
37.417506177 1192.0
37.434217446 1144.0
37.450928715 1093.0
37.467639984 994.0
37.484351253 916.0
37.501062522 938.0
37.517773791 858.0
37.534485060 800.0
37.551196329 840.0
37.567907598 906.0
37.584618867 881.0
37.601330136 881.0
37.618041405 872.0
37.634752674 973.0
37.651463943 1000.0
37.668175212 963.0
37.684886481 979.0
37.701597750 1000.0
37.718309019 905.0
37.735020288 783.0
37.751731557 684.0
37.768442826 708.0
37.785154095 638.0
37.801865364 561.0
37.818576633 508.0
37.835287902 472.0
37.851999171 426.0
37.868710440 423.0
37.885421709 382.0
37.902132977 362.0
37.918844246 354.0
37.935555515 350.0
37.952266784 367.0
37.968978053 363.0
37.985689322 365.0
38.002400591 358.0
38.019111860 364.0
38.035823129 353.0
38.052534398 305.0
38.069245667 309.0
38.085956936 348.0
38.102668205 323.0
38.119379474 354.0
38.136090743 366.0
38.152802012 358.0
38.169513281 392.0
38.186224550 405.0
38.202935819 433.0
38.219647088 453.0
38.236358357 494.0
38.253069626 519.0
38.269780895 587.0
38.286492164 610.0
38.303203433 694.0
38.319914702 782.0
38.336625971 891.0
38.353337240 985.0
38.370048509 1224.0
38.386759778 1312.0
38.403471047 1388.0
38.420182316 1432.0
38.436893585 1411.0
38.453604854 1163.0
38.470316123 1020.0
38.487027392 961.0
38.503738661 905.0
38.520449930 910.0
38.537161199 772.0
38.553872468 648.0
38.570583737 529.0
38.587295006 470.0
38.604006275 411.0
38.620717544 384.0
38.637428812 347.0
38.654140081 351.0
38.670851350 371.0
38.687562619 367.0
38.704273888 348.0
38.720985157 389.0
38.737696426 402.0
38.754407695 394.0
38.771118964 427.0
38.787830233 457.0
38.804541502 475.0
38.821252771 489.0
38.837964040 537.0
38.854675309 495.0
38.871386578 544.0
38.888097847 518.0
38.904809116 503.0
38.921520385 518.0
38.938231654 520.0
38.954942923 479.0
38.971654192 474.0
38.988365461 464.0
39.005076730 452.0
39.021787999 470.0
39.038499268 448.0
39.055210537 459.0
39.071921806 489.0
39.088633075 518.0
39.105344344 538.0
39.122055613 502.0
39.138766882 490.0
39.155478151 446.0
39.172189420 428.0
39.188900689 461.0
39.205611958 408.0
39.222323227 414.0
39.239034496 380.0
39.255745765 313.0
39.272457034 339.0
39.289168303 309.0
39.305879572 306.0
39.322590841 287.0
39.339302110 299.0
39.356013379 309.0
39.372724648 306.0
39.389435916 287.0
39.406147185 318.0
39.422858454 314.0
39.439569723 318.0
39.456280992 299.0
39.472992261 305.0
39.489703530 276.0
39.506414799 274.0
39.523126068 323.0
39.539837337 329.0
39.556548606 316.0
39.573259875 331.0
39.589971144 296.0
39.606682413 317.0
39.623393682 318.0
39.640104951 312.0
39.656816220 298.0
39.673527489 273.0
39.690238758 295.0
39.706950027 321.0
39.723661296 303.0
39.740372565 287.0
39.757083834 296.0
39.773795103 300.0
39.790506372 288.0
39.807217641 324.0
39.823928910 340.0
39.840640179 269.0
39.857351448 323.0
39.874062717 317.0
39.890773986 307.0
39.907485255 305.0
39.924196524 337.0
39.940907793 289.0
39.957619062 313.0
39.974330331 290.0
39.991041600 311.0
40.007752869 312.0
40.024464138 350.0
40.041175407 361.0
40.057886676 326.0
40.074597945 351.0
40.091309214 403.0
40.108020483 361.0
40.124731751 354.0
40.141443020 387.0
40.158154289 323.0
40.174865558 359.0
40.191576827 402.0
40.208288096 464.0
40.224999365 468.0
40.241710634 509.0
40.258421903 514.0
40.275133172 458.0
40.291844441 452.0
40.308555710 491.0
40.325266979 427.0
40.341978248 450.0
40.358689517 414.0
40.375400786 404.0
40.392112055 384.0
40.408823324 411.0
40.425534593 359.0
40.442245862 366.0
40.458957131 327.0
40.475668400 329.0
40.492379669 320.0
40.509090938 306.0
40.525802207 342.0
40.542513476 285.0
40.559224745 300.0
40.575936014 356.0
40.592647283 391.0
40.609358552 373.0
40.626069821 343.0
40.642781090 354.0
40.659492359 354.0
40.676203628 381.0
40.692914897 407.0
40.709626166 429.0
40.726337435 444.0
40.743048704 463.0
40.759759973 494.0
40.776471242 587.0
40.793182511 616.0
40.809893780 741.0
40.826605049 839.0
40.843316318 945.0
40.860027586 981.0
40.876738855 1219.0
40.893450124 1240.0
40.910161393 1172.0
40.926872662 1128.0
40.943583931 1085.0
40.960295200 1124.0
40.977006469 1176.0
40.993717738 1106.0
41.010429007 1179.0
41.027140276 1198.0
41.043851545 1245.0
41.060562814 1266.0
41.077274083 1325.0
41.093985352 1296.0
41.110696621 1279.0
41.127407890 1238.0
41.144119159 1190.0
41.160830428 1141.0
41.177541697 1192.0
41.194252966 1215.0
41.210964235 1248.0
41.227675504 1153.0
41.244386773 1163.0
41.261098042 1103.0
41.277809311 994.0
41.294520580 919.0
41.311231849 844.0
41.327943118 880.0
41.344654387 858.0
41.361365656 851.0
41.378076925 965.0
41.394788194 901.0
41.411499463 1009.0
41.428210732 1061.0
41.444922001 1072.0
41.461633270 1076.0
41.478344539 919.0
41.495055808 825.0
41.511767077 857.0
41.528478346 882.0
41.545189615 952.0
41.561900884 998.0
41.578612153 893.0
41.595323421 809.0
41.612034690 810.0
41.628745959 723.0
41.645457228 685.0
41.662168497 621.0
41.678879766 661.0
41.695591035 621.0
41.712302304 591.0
41.729013573 587.0
41.745724842 533.0
41.762436111 469.0
41.779147380 471.0
41.795858649 451.0
41.812569918 434.0
41.829281187 434.0
41.845992456 424.0
41.862703725 414.0
41.879414994 412.0
41.896126263 396.0
41.912837532 407.0
41.929548801 383.0
41.946260070 366.0
41.962971339 410.0
41.979682608 393.0
41.996393877 396.0
42.013105146 404.0
42.029816415 474.0
42.046527684 463.0
42.063238953 497.0
42.079950222 495.0
42.096661491 586.0
42.113372760 609.0
42.130084029 702.0
42.146795298 735.0
42.163506567 914.0
42.180217836 1010.0
42.196929105 1123.0
42.213640374 1227.0
42.230351643 1220.0
42.247062912 1163.0
42.263774181 1068.0
42.280485450 957.0
42.297196719 925.0
42.313907988 931.0
42.330619256 858.0
42.347330525 732.0
42.364041794 753.0
42.380753063 632.0
42.397464332 614.0
42.414175601 577.0
42.430886870 545.0
42.447598139 590.0
42.464309408 599.0
42.481020677 638.0
42.497731946 711.0
42.514443215 763.0
42.531154484 763.0
42.547865753 662.0
42.564577022 672.0
42.581288291 698.0
42.597999560 683.0
42.614710829 648.0
42.631422098 662.0
42.648133367 629.0
42.664844636 564.0
42.681555905 577.0
42.698267174 550.0
42.714978443 489.0
42.731689712 522.0
42.748400981 497.0
42.765112250 497.0
42.781823519 469.0
42.798534788 496.0
42.815246057 425.0
42.831957326 445.0
42.848668595 433.0
42.865379864 431.0
42.882091133 428.0
42.898802402 423.0
42.915513671 389.0
42.932224940 400.0
42.948936209 412.0
42.965647478 375.0
42.982358747 370.0
42.999070016 428.0
43.015781285 427.0
43.032492554 417.0
43.049203823 449.0
43.065915092 464.0
43.082626360 527.0
43.099337629 476.0
43.116048898 525.0
43.132760167 553.0
43.149471436 704.0
43.166182705 804.0
43.182893974 951.0
43.199605243 1182.0
43.216316512 1421.0
43.233027781 1665.0
43.249739050 1597.0
43.266450319 1400.0
43.283161588 1116.0
43.299872857 944.0
43.316584126 954.0
43.333295395 983.0
43.350006664 992.0
43.366717933 937.0
43.383429202 741.0
43.400140471 592.0
43.416851740 499.0
43.433563009 401.0
43.450274278 364.0
43.466985547 383.0
43.483696816 384.0
43.500408085 357.0
43.517119354 354.0
43.533830623 334.0
43.550541892 322.0
43.567253161 314.0
43.583964430 326.0
43.600675699 340.0
43.617386968 312.0
43.634098237 328.0
43.650809506 333.0
43.667520775 318.0
43.684232044 321.0
43.700943313 304.0
43.717654582 337.0
43.734365851 328.0
43.751077120 355.0
43.767788389 330.0
43.784499658 347.0
43.801210927 348.0
43.817922195 324.0
43.834633464 349.0
43.851344733 294.0
43.868056002 323.0
43.884767271 306.0
43.901478540 328.0
43.918189809 339.0
43.934901078 332.0
43.951612347 307.0
43.968323616 296.0
43.985034885 295.0
44.001746154 330.0
44.018457423 313.0
44.035168692 298.0
44.051879961 331.0
44.068591230 295.0
44.085302499 287.0
44.102013768 326.0
44.118725037 316.0
44.135436306 311.0
44.152147575 307.0
44.168858844 301.0
44.185570113 289.0
44.202281382 300.0
44.218992651 338.0
44.235703920 301.0
44.252415189 352.0
44.269126458 340.0
44.285837727 337.0
44.302548996 313.0
44.319260265 327.0
44.335971534 325.0
44.352682803 326.0
44.369394072 316.0
44.386105341 333.0
44.402816610 329.0
44.419527879 344.0
44.436239148 364.0
44.452950417 382.0
44.469661686 398.0
44.486372955 420.0
44.503084224 405.0
44.519795493 445.0
44.536506762 437.0
44.553218030 457.0
44.569929299 481.0
44.586640568 509.0
44.603351837 572.0
44.620063106 731.0
44.636774375 813.0
44.653485644 947.0
44.670196913 936.0
44.686908182 876.0
44.703619451 817.0
44.720330720 689.0
44.737041989 680.0
44.753753258 680.0
44.770464527 679.0
44.787175796 696.0
44.803887065 620.0
44.820598334 639.0
44.837309603 557.0
44.854020872 539.0
44.870732141 544.0
44.887443410 529.0
44.904154679 531.0
44.920865948 569.0
44.937577217 569.0
44.954288486 519.0
44.970999755 512.0
44.987711024 490.0
45.004422293 501.0
45.021133562 533.0
45.037844831 513.0
45.054556100 471.0
45.071267369 430.0
45.087978638 426.0
45.104689907 395.0
45.121401176 391.0
45.138112445 395.0
45.154823714 382.0
45.171534983 343.0
45.188246252 378.0
45.204957521 351.0
45.221668790 335.0
45.238380059 375.0
45.255091328 433.0
45.271802597 396.0
45.288513865 431.0
45.305225134 474.0
45.321936403 474.0
45.338647672 533.0
45.355358941 561.0
45.372070210 651.0
45.388781479 724.0
45.405492748 745.0
45.422204017 810.0
45.438915286 745.0
45.455626555 738.0
45.472337824 693.0
45.489049093 665.0
45.505760362 698.0
45.522471631 667.0
45.539182900 654.0
45.555894169 628.0
45.572605438 536.0
45.589316707 530.0
45.606027976 472.0
45.622739245 436.0
45.639450514 433.0
45.656161783 423.0
45.672873052 423.0
45.689584321 411.0
45.706295590 388.0
45.723006859 354.0
45.739718128 384.0
45.756429397 414.0
45.773140666 439.0
45.789851935 440.0
45.806563204 394.0
45.823274473 434.0
45.839985742 428.0
45.856697011 415.0
45.873408280 466.0
45.890119549 439.0
45.906830818 388.0
45.923542087 380.0
45.940253356 381.0
45.956964625 401.0
45.973675894 389.0
45.990387163 402.0
46.007098432 366.0
46.023809701 382.0
46.040520969 352.0
46.057232238 388.0
46.073943507 384.0
46.090654776 392.0
46.107366045 398.0
46.124077314 351.0
46.140788583 371.0
46.157499852 384.0
46.174211121 357.0
46.190922390 364.0
46.207633659 353.0
46.224344928 361.0
46.241056197 352.0
46.257767466 353.0
46.274478735 316.0
46.291190004 338.0
46.307901273 340.0
46.324612542 354.0
46.341323811 312.0
46.358035080 307.0
46.374746349 316.0
46.391457618 298.0
46.408168887 328.0
46.424880156 344.0
46.441591425 324.0
46.458302694 337.0
46.475013963 341.0
46.491725232 333.0
46.508436501 395.0
46.525147770 372.0
46.541859039 417.0
46.558570308 404.0
46.575281577 432.0
46.591992846 453.0
46.608704115 469.0
46.625415384 542.0
46.642126653 554.0
46.658837922 685.0
46.675549191 758.0
46.692260460 829.0
46.708971729 965.0
46.725682998 978.0
46.742394267 1146.0
46.759105536 1321.0
46.775816804 1274.0
46.792528073 1300.0
46.809239342 1302.0
46.825950611 1112.0
46.842661880 1046.0
46.859373149 933.0
46.876084418 881.0
46.892795687 901.0
46.909506956 876.0
46.926218225 865.0
46.942929494 702.0
46.959640763 682.0
46.976352032 620.0
46.993063301 606.0
47.009774570 591.0
47.026485839 629.0
47.043197108 615.0
47.059908377 648.0
47.076619646 620.0
47.093330915 574.0
47.110042184 536.0
47.126753453 556.0
47.143464722 546.0
47.160175991 539.0
47.176887260 546.0
47.193598529 552.0
47.210309798 532.0
47.227021067 547.0
47.243732336 500.0
47.260443605 482.0
47.277154874 461.0
47.293866143 509.0
47.310577412 489.0
47.327288681 582.0
47.343999950 560.0
47.360711219 665.0
47.377422488 705.0
47.394133757 835.0
47.410845026 945.0
47.427556295 1005.0
47.444267564 1144.0
47.460978833 1247.0
47.477690102 1390.0
47.494401371 1439.0
47.511112639 1399.0
47.527823908 1242.0
47.544535177 1180.0
47.561246446 1025.0
47.577957715 1070.0
47.594668984 998.0
47.611380253 1008.0
47.628091522 890.0
47.644802791 851.0
47.661514060 739.0
47.678225329 612.0
47.694936598 591.0
47.711647867 553.0
47.728359136 493.0
47.745070405 456.0
47.761781674 531.0
47.778492943 432.0
47.795204212 393.0
47.811915481 468.0
47.828626750 519.0
47.845338019 503.0
47.862049288 551.0
47.878760557 558.0
47.895471826 613.0
47.912183095 585.0
47.928894364 525.0
47.945605633 527.0
47.962316902 530.0
47.979028171 509.0
47.995739440 518.0
48.012450709 491.0
48.029161978 535.0
48.045873247 569.0
48.062584516 559.0
48.079295785 566.0
48.096007054 584.0
48.112718323 671.0
48.129429592 688.0
48.146140861 772.0
48.162852130 676.0
48.179563399 646.0
48.196274668 537.0
48.212985937 502.0
48.229697206 528.0
48.246408474 513.0
48.263119743 539.0
48.279831012 559.0
48.296542281 535.0
48.313253550 436.0
48.329964819 409.0
48.346676088 386.0
48.363387357 355.0
48.380098626 304.0
48.396809895 316.0
48.413521164 316.0
48.430232433 326.0
48.446943702 302.0
48.463654971 312.0
48.480366240 283.0
48.497077509 307.0
48.513788778 281.0
48.530500047 291.0
48.547211316 290.0
48.563922585 330.0
48.580633854 282.0
48.597345123 284.0
48.614056392 275.0
48.630767661 305.0
48.647478930 306.0
48.664190199 318.0
48.680901468 301.0
48.697612737 319.0
48.714324006 316.0
48.731035275 298.0
48.747746544 304.0
48.764457813 339.0
48.781169082 291.0
48.797880351 329.0
48.814591620 330.0
48.831302889 317.0
48.848014158 327.0
48.864725427 333.0
48.881436696 355.0
48.898147965 337.0
48.914859234 419.0
48.931570503 409.0
48.948281772 446.0
48.964993041 466.0
48.981704309 551.0
48.998415578 657.0
49.015126847 703.0
49.031838116 795.0
49.048549385 872.0
49.065260654 1019.0
49.081971923 1019.0
49.098683192 921.0
49.115394461 773.0
49.132105730 787.0
49.148816999 745.0
49.165528268 751.0
49.182239537 789.0
49.198950806 840.0
49.215662075 760.0
49.232373344 687.0
49.249084613 577.0
49.265795882 500.0
49.282507151 473.0
49.299218420 430.0
49.315929689 431.0
49.332640958 416.0
49.349352227 417.0
49.366063496 426.0
49.382774765 421.0
49.399486034 376.0
49.416197303 329.0
49.432908572 373.0
49.449619841 332.0
49.466331110 323.0
49.483042379 349.0
49.499753648 357.0
49.516464917 339.0
49.533176186 346.0
49.549887455 318.0
49.566598724 338.0
49.583309993 344.0
49.600021262 311.0
49.616732531 308.0
49.633443800 316.0
49.650155069 302.0
49.666866338 325.0
49.683577607 337.0
49.700288876 380.0
49.717000145 356.0
49.733711413 344.0
49.750422682 350.0
49.767133951 347.0
49.783845220 332.0
49.800556489 312.0
49.817267758 326.0
49.833979027 310.0
49.850690296 297.0
49.867401565 348.0
49.884112834 361.0
49.900824103 350.0
49.917535372 325.0
49.934246641 290.0
49.950957910 288.0
49.967669179 319.0
49.984380448 280.0
50.001091717 292.0
50.017802986 289.0
50.034514255 281.0
50.051225524 287.0
50.067936793 300.0
50.084648062 289.0
50.101359331 327.0
50.118070600 336.0
50.134781869 306.0
50.151493138 300.0
50.168204407 300.0
50.184915676 282.0
50.201626945 318.0
50.218338214 271.0
50.235049483 296.0
50.251760752 292.0
50.268472021 296.0
50.285183290 327.0
50.301894559 319.0
50.318605828 314.0
50.335317097 306.0
50.352028366 281.0
50.368739635 302.0
50.385450904 290.0
50.402162173 309.0
50.418873442 290.0
50.435584711 292.0
50.452295980 317.0
50.469007248 274.0
50.485718517 327.0
50.502429786 339.0
50.519141055 350.0
50.535852324 359.0
50.552563593 381.0
50.569274862 404.0
50.585986131 337.0
50.602697400 351.0
50.619408669 342.0
50.636119938 342.0
50.652831207 329.0
50.669542476 387.0
50.686253745 362.0
50.702965014 347.0
50.719676283 316.0
50.736387552 323.0
50.753098821 347.0
50.769810090 326.0
50.786521359 324.0
50.803232628 292.0
50.819943897 284.0
50.836655166 342.0
50.853366435 325.0
50.870077704 288.0
50.886788973 325.0
50.903500242 292.0
50.920211511 289.0
50.936922780 282.0
50.953634049 306.0
50.970345318 293.0
50.987056587 285.0
51.003767856 317.0
51.020479125 302.0
51.037190394 299.0
51.053901663 266.0
51.070612932 281.0
51.087324201 284.0
51.104035470 265.0
51.120746739 284.0
51.137458008 285.0
51.154169277 284.0
51.170880546 330.0
51.187591815 277.0
51.204303083 289.0
51.221014352 301.0
51.237725621 317.0
51.254436890 323.0
51.271148159 313.0
51.287859428 340.0
51.304570697 393.0
51.321281966 394.0
51.337993235 383.0
51.354704504 410.0
51.371415773 426.0
51.388127042 355.0
51.404838311 344.0
51.421549580 371.0
51.438260849 348.0
51.454972118 389.0
51.471683387 368.0
51.488394656 362.0
51.505105925 338.0
51.521817194 317.0
51.538528463 330.0
51.555239732 255.0
51.571951001 274.0
51.588662270 266.0
51.605373539 274.0
51.622084808 265.0
51.638796077 240.0
51.655507346 272.0
51.672218615 254.0
51.688929884 286.0
51.705641153 248.0
51.722352422 273.0
51.739063691 276.0
51.755774960 245.0
51.772486229 288.0
51.789197498 275.0
51.805908767 266.0
51.822620036 261.0
51.839331305 279.0
51.856042574 261.0
51.872753843 276.0
51.889465112 230.0
51.906176381 238.0
51.922887650 265.0
51.939598918 268.0
51.956310187 255.0
51.973021456 286.0
51.989732725 268.0
52.006443994 267.0
52.023155263 263.0
52.039866532 253.0
52.056577801 280.0
52.073289070 263.0
52.090000339 256.0
52.106711608 266.0
52.123422877 267.0
52.140134146 291.0
52.156845415 293.0
52.173556684 264.0
52.190267953 266.0
52.206979222 288.0
52.223690491 260.0
52.240401760 262.0
52.257113029 280.0
52.273824298 261.0
52.290535567 258.0
52.307246836 281.0
52.323958105 252.0
52.340669374 283.0
52.357380643 288.0
52.374091912 259.0
52.390803181 262.0
52.407514450 278.0
52.424225719 261.0
52.440936988 273.0
52.457648257 256.0
52.474359526 293.0
52.491070795 280.0
52.507782064 312.0
52.524493333 283.0
52.541204602 283.0
52.557915871 275.0
52.574627140 268.0
52.591338409 259.0
52.608049678 300.0
52.624760947 265.0
52.641472216 280.0
52.658183485 266.0
52.674894754 255.0
52.691606022 292.0
52.708317291 282.0
52.725028560 260.0
52.741739829 258.0
52.758451098 304.0
52.775162367 294.0
52.791873636 274.0
52.808584905 268.0
52.825296174 276.0
52.842007443 278.0
52.858718712 280.0
52.875429981 323.0
52.892141250 303.0
52.908852519 333.0
52.925563788 320.0
52.942275057 328.0
52.958986326 355.0
52.975697595 392.0
52.992408864 366.0
53.009120133 357.0
53.025831402 379.0
53.042542671 386.0
53.059253940 416.0
53.075965209 403.0
53.092676478 399.0
53.109387747 409.0
53.126099016 406.0
53.142810285 373.0
53.159521554 377.0
53.176232823 394.0
53.192944092 411.0
53.209655361 367.0
53.226366630 339.0
53.243077899 327.0
53.259789168 307.0
53.276500437 325.0
53.293211706 319.0
53.309922975 321.0
53.326634244 323.0
53.343345513 288.0
53.360056782 293.0
53.376768051 268.0
53.393479320 323.0
53.410190589 311.0
53.426901857 298.0
53.443613126 290.0
53.460324395 307.0
53.477035664 291.0
53.493746933 306.0
53.510458202 296.0
53.527169471 274.0
53.543880740 280.0
53.560592009 259.0
53.577303278 291.0
53.594014547 315.0
53.610725816 289.0
53.627437085 292.0
53.644148354 289.0
53.660859623 252.0
53.677570892 281.0
53.694282161 280.0
53.710993430 286.0
53.727704699 276.0
53.744415968 308.0
53.761127237 283.0
53.777838506 281.0
53.794549775 272.0
53.811261044 283.0
53.827972313 292.0
53.844683582 313.0
53.861394851 293.0
53.878106120 261.0
53.894817389 274.0
53.911528658 277.0
53.928239927 267.0
53.944951196 285.0
53.961662465 242.0
53.978373734 272.0
53.995085003 266.0
54.011796272 305.0
54.028507541 273.0
54.045218810 277.0
54.061930079 301.0
54.078641348 326.0
54.095352617 311.0
54.112063886 328.0
54.128775155 332.0
54.145486424 394.0
54.162197692 363.0
54.178908961 354.0
54.195620230 354.0
54.212331499 343.0
54.229042768 340.0
54.245754037 310.0
54.262465306 319.0
54.279176575 304.0
54.295887844 273.0
54.312599113 337.0
54.329310382 294.0
54.346021651 304.0
54.362732920 340.0
54.379444189 271.0
54.396155458 275.0
54.412866727 257.0
54.429577996 274.0
54.446289265 280.0
54.463000534 271.0
54.479711803 264.0
54.496423072 298.0
54.513134341 265.0
54.529845610 225.0
54.546556879 284.0
54.563268148 306.0
54.579979417 307.0
54.596690686 298.0
54.613401955 309.0
54.630113224 315.0
54.646824493 333.0
54.663535762 348.0
54.680247031 400.0
54.696958300 416.0
54.713669569 396.0
54.730380838 388.0
54.747092107 410.0
54.763803376 437.0
54.780514645 396.0
54.797225914 429.0
54.813937183 433.0
54.830648452 418.0
54.847359721 383.0
54.864070990 421.0
54.880782259 406.0
54.897493527 442.0
54.914204796 428.0
54.930916065 456.0
54.947627334 449.0
54.964338603 434.0
54.981049872 426.0
54.997761141 418.0
55.014472410 450.0
55.031183679 478.0
55.047894948 473.0
55.064606217 536.0
55.081317486 490.0
55.098028755 510.0
55.114740024 531.0
55.131451293 493.0
55.148162562 492.0
55.164873831 486.0
55.181585100 455.0
55.198296369 530.0
55.215007638 490.0
55.231718907 570.0
55.248430176 547.0
55.265141445 541.0
55.281852714 574.0
55.298563983 535.0
55.315275252 608.0
55.331986521 542.0
55.348697790 526.0
55.365409059 503.0
55.382120328 473.0
55.398831597 457.0
55.415542866 434.0
55.432254135 480.0
55.448965404 460.0
55.465676673 477.0
55.482387942 449.0
55.499099211 443.0
55.515810480 464.0
55.532521749 420.0
55.549233018 422.0
55.565944287 449.0
55.582655556 401.0
55.599366825 387.0
55.616078094 429.0
55.632789362 374.0
55.649500631 391.0
55.666211900 413.0
55.682923169 417.0
55.699634438 443.0
55.716345707 460.0
55.733056976 487.0
55.749768245 514.0
55.766479514 613.0
55.783190783 653.0
55.799902052 640.0
55.816613321 562.0
55.833324590 511.0
55.850035859 446.0
55.866747128 481.0
55.883458397 496.0
55.900169666 493.0
55.916880935 532.0
55.933592204 549.0
55.950303473 609.0
55.967014742 607.0
55.983726011 609.0
56.000437280 611.0
56.017148549 622.0
56.033859818 647.0
56.050571087 583.0
56.067282356 485.0
56.083993625 508.0
56.100704894 457.0
56.117416163 437.0
56.134127432 427.0
56.150838701 442.0
56.167549970 450.0
56.184261239 463.0
56.200972508 464.0
56.217683777 407.0
56.234395046 394.0
56.251106315 396.0
56.267817584 413.0
56.284528853 372.0
56.301240122 329.0
56.317951391 370.0
56.334662660 367.0
56.351373929 351.0
56.368085198 328.0
56.384796466 322.0
56.401507735 360.0
56.418219004 320.0
56.434930273 300.0
56.451641542 330.0
56.468352811 324.0
56.485064080 332.0
56.501775349 362.0
56.518486618 353.0
56.535197887 330.0
56.551909156 360.0
56.568620425 355.0
56.585331694 379.0
56.602042963 398.0
56.618754232 425.0
56.635465501 436.0
56.652176770 472.0
56.668888039 510.0
56.685599308 504.0
56.702310577 540.0
56.719021846 603.0
56.735733115 602.0
56.752444384 662.0
56.769155653 631.0
56.785866922 619.0
56.802578191 594.0
56.819289460 664.0
56.836000729 572.0
56.852711998 533.0
56.869423267 533.0
56.886134536 528.0
56.902845805 531.0
56.919557074 525.0
56.936268343 490.0
56.952979612 494.0
56.969690881 431.0
56.986402150 429.0
57.003113419 363.0
57.019824688 429.0
57.036535957 383.0
57.053247226 376.0
57.069958495 352.0
57.086669764 335.0
57.103381033 342.0
57.120092301 311.0
57.136803570 325.0
57.153514839 290.0
57.170226108 318.0
57.186937377 337.0
57.203648646 321.0
57.220359915 319.0
57.237071184 302.0
57.253782453 306.0
57.270493722 307.0
57.287204991 309.0
57.303916260 303.0
57.320627529 328.0
57.337338798 263.0
57.354050067 305.0
57.370761336 313.0
57.387472605 294.0
57.404183874 299.0
57.420895143 286.0
57.437606412 315.0
57.454317681 316.0
57.471028950 325.0
57.487740219 314.0
57.504451488 342.0
57.521162757 331.0
57.537874026 342.0
57.554585295 321.0
57.571296564 333.0
57.588007833 337.0
57.604719102 419.0
57.621430371 390.0
57.638141640 431.0
57.654852909 436.0
57.671564178 463.0
57.688275447 546.0
57.704986716 597.0
57.721697985 680.0
57.738409254 743.0
57.755120523 781.0
57.771831792 886.0
57.788543061 896.0
57.805254330 887.0
57.821965599 851.0
57.838676868 810.0
57.855388136 834.0
57.872099405 777.0
57.888810674 780.0
57.905521943 728.0
57.922233212 774.0
57.938944481 861.0
57.955655750 852.0
57.972367019 802.0
57.989078288 810.0
58.005789557 783.0
58.022500826 735.0
58.039212095 685.0
58.055923364 636.0
58.072634633 573.0
58.089345902 540.0
58.106057171 522.0
58.122768440 480.0
58.139479709 501.0
58.156190978 516.0
58.172902247 568.0
58.189613516 497.0
58.206324785 483.0
58.223036054 443.0
58.239747323 471.0
58.256458592 433.0
58.273169861 411.0
58.289881130 453.0
58.306592399 442.0
58.323303668 480.0
58.340014937 483.0
58.356726206 488.0
58.373437475 512.0
58.390148744 505.0
58.406860013 514.0
58.423571282 506.0
58.440282551 517.0
58.456993820 546.0
58.473705089 567.0
58.490416358 600.0
58.507127627 559.0
58.523838896 531.0
58.540550165 473.0
58.557261434 515.0
58.573972703 471.0
58.590683971 479.0
58.607395240 470.0
58.624106509 438.0
58.640817778 480.0
58.657529047 488.0
58.674240316 520.0
58.690951585 481.0
58.707662854 512.0
58.724374123 514.0
58.741085392 514.0
58.757796661 519.0
58.774507930 540.0
58.791219199 540.0
58.807930468 516.0
58.824641737 572.0
58.841353006 574.0
58.858064275 559.0
58.874775544 555.0
58.891486813 665.0
58.908198082 626.0
58.924909351 668.0
58.941620620 608.0
58.958331889 622.0
58.975043158 526.0
58.991754427 532.0
59.008465696 548.0
59.025176965 531.0
59.041888234 595.0
59.058599503 576.0
59.075310772 586.0
59.092022041 616.0
59.108733310 564.0
59.125444579 493.0
59.142155848 479.0
59.158867117 471.0
59.175578386 476.0
59.192289655 469.0
59.209000924 487.0
59.225712193 476.0
59.242423462 499.0
59.259134731 502.0
59.275846000 549.0
59.292557269 521.0
59.309268538 528.0
59.325979806 569.0
59.342691075 598.0
59.359402344 643.0
59.376113613 628.0
59.392824882 706.0
59.409536151 745.0
59.426247420 729.0
59.442958689 757.0
59.459669958 721.0
59.476381227 654.0
59.493092496 588.0
59.509803765 573.0
59.526515034 555.0
59.543226303 583.0
59.559937572 546.0
59.576648841 522.0
59.593360110 578.0
59.610071379 551.0
59.626782648 534.0
59.643493917 519.0
59.660205186 476.0
59.676916455 446.0
59.693627724 392.0
59.710338993 400.0
59.727050262 413.0
59.743761531 372.0
59.760472800 357.0
59.777184069 368.0
59.793895338 343.0
59.810606607 401.0
59.827317876 402.0
59.844029145 404.0
59.860740414 389.0
59.877451683 401.0
59.894162952 437.0
59.910874221 445.0
59.927585490 434.0
59.944296759 417.0
59.961008028 397.0
59.977719297 376.0
59.994430566 375.0
60.011141835 390.0
60.027853104 357.0
60.044564373 403.0
60.061275642 406.0
60.077986910 401.0
60.094698179 398.0
60.111409448 400.0
60.128120717 430.0
60.144831986 486.0
60.161543255 460.0
60.178254524 476.0
60.194965793 498.0
60.211677062 498.0
60.228388331 570.0
60.245099600 598.0
60.261810869 618.0
60.278522138 666.0
60.295233407 730.0
60.311944676 719.0
60.328655945 701.0
60.345367214 639.0
60.362078483 648.0
60.378789752 636.0
60.395501021 686.0
60.412212290 718.0
60.428923559 736.0
60.445634828 837.0
60.462346097 884.0
60.479057366 935.0
60.495768635 949.0
60.512479904 970.0
60.529191173 970.0
60.545902442 961.0
60.562613711 949.0
60.579324980 906.0
60.596036249 925.0
60.612747518 901.0
60.629458787 863.0
60.646170056 810.0
60.662881325 801.0
60.679592594 815.0
60.696303863 790.0
60.713015132 739.0
60.729726401 731.0
60.746437670 698.0
60.763148939 660.0
60.779860208 658.0
60.796571477 667.0
60.813282745 635.0
60.829994014 536.0
60.846705283 559.0
60.863416552 537.0
60.880127821 458.0
60.896839090 457.0
60.913550359 466.0
60.930261628 440.0
60.946972897 480.0
60.963684166 481.0
60.980395435 445.0
60.997106704 511.0
61.013817973 471.0
61.030529242 526.0
61.047240511 572.0
61.063951780 545.0
61.080663049 551.0
61.097374318 499.0
61.114085587 456.0
61.130796856 478.0
61.147508125 452.0
61.164219394 426.0
61.180930663 450.0
61.197641932 449.0
61.214353201 461.0
61.231064470 447.0
61.247775739 436.0
61.264487008 439.0
61.281198277 397.0
61.297909546 375.0
61.314620815 335.0
61.331332084 376.0
61.348043353 391.0
61.364754622 365.0
61.381465891 353.0
61.398177160 359.0
61.414888429 334.0
61.431599698 312.0
61.448310967 318.0
61.465022236 356.0
61.481733505 377.0
61.498444774 342.0
61.515156043 379.0
61.531867312 372.0
61.548578580 337.0
61.565289849 315.0
61.582001118 326.0
61.598712387 336.0
61.615423656 335.0
61.632134925 301.0
61.648846194 337.0
61.665557463 356.0
61.682268732 336.0
61.698980001 346.0
61.715691270 350.0
61.732402539 325.0
61.749113808 318.0
61.765825077 349.0
61.782536346 346.0
61.799247615 310.0
61.815958884 364.0
61.832670153 358.0
61.849381422 370.0
61.866092691 355.0
61.882803960 354.0
61.899515229 334.0
61.916226498 347.0
61.932937767 347.0
61.949649036 281.0
61.966360305 330.0
61.983071574 377.0
61.999782843 338.0
62.016494112 378.0
62.033205381 355.0
62.049916650 324.0
62.066627919 357.0
62.083339188 312.0
62.100050457 287.0
62.116761726 290.0
62.133472995 310.0
62.150184264 279.0
62.166895533 271.0
62.183606802 292.0
62.200318071 297.0
62.217029340 312.0
62.233740609 307.0
62.250451878 273.0
62.267163147 306.0
62.283874415 318.0
62.300585684 321.0
62.317296953 321.0
62.334008222 303.0
62.350719491 323.0
62.367430760 301.0
62.384142029 317.0
62.400853298 342.0
62.417564567 313.0
62.434275836 339.0
62.450987105 376.0
62.467698374 399.0
62.484409643 407.0
62.501120912 449.0
62.517832181 448.0
62.534543450 433.0
62.551254719 449.0
62.567965988 425.0
62.584677257 374.0
62.601388526 379.0
62.618099795 395.0
62.634811064 436.0
62.651522333 399.0
62.668233602 413.0
62.684944871 435.0
62.701656140 438.0
62.718367409 436.0
62.735078678 476.0
62.751789947 416.0
62.768501216 478.0
62.785212485 478.0
62.801923754 501.0
62.818635023 562.0
62.835346292 572.0
62.852057561 707.0
62.868768830 766.0
62.885480099 797.0
62.902191368 936.0
62.918902637 950.0
62.935613906 947.0
62.952325175 923.0
62.969036444 875.0
62.985747713 844.0
63.002458982 830.0
63.019170251 734.0
63.035881519 811.0
63.052592788 798.0
63.069304057 799.0
63.086015326 755.0
63.102726595 751.0
63.119437864 776.0
63.136149133 813.0
63.152860402 686.0
63.169571671 603.0
63.186282940 547.0
63.202994209 552.0
63.219705478 532.0
63.236416747 484.0
63.253128016 495.0
63.269839285 512.0
63.286550554 509.0
63.303261823 479.0
63.319973092 460.0
63.336684361 534.0
63.353395630 520.0
63.370106899 492.0
63.386818168 516.0
63.403529437 520.0
63.420240706 536.0
63.436951975 538.0
63.453663244 564.0
63.470374513 622.0
63.487085782 666.0
63.503797051 702.0
63.520508320 712.0
63.537219589 721.0
63.553930858 705.0
63.570642127 694.0
63.587353396 637.0
63.604064665 577.0
63.620775934 496.0
63.637487203 540.0
63.654198472 534.0
63.670909741 543.0
63.687621010 511.0
63.704332279 524.0
63.721043548 533.0
63.737754817 471.0
63.754466086 465.0
63.771177354 472.0
63.787888623 430.0
63.804599892 437.0
63.821311161 393.0
63.838022430 386.0
63.854733699 378.0
63.871444968 397.0
63.888156237 373.0
63.904867506 389.0
63.921578775 365.0
63.938290044 344.0
63.955001313 358.0
63.971712582 343.0
63.988423851 360.0
64.005135120 358.0
64.021846389 339.0
64.038557658 368.0
64.055268927 343.0
64.071980196 371.0
64.088691465 373.0
64.105402734 342.0
64.122114003 314.0
64.138825272 323.0
64.155536541 297.0
64.172247810 322.0
64.188959079 304.0
64.205670348 291.0
64.222381617 318.0
64.239092886 296.0
64.255804155 283.0
64.272515424 264.0
64.289226693 300.0
64.305937962 268.0
64.322649231 281.0
64.339360500 291.0
64.356071769 263.0
64.372783038 231.0
64.389494307 278.0
64.406205576 283.0
64.422916845 288.0
64.439628114 306.0
64.456339383 299.0
64.473050652 301.0
64.489761921 297.0
64.506473189 307.0
64.523184458 285.0
64.539895727 305.0
64.556606996 313.0
64.573318265 327.0
64.590029534 348.0
64.606740803 314.0
64.623452072 349.0
64.640163341 355.0
64.656874610 336.0
64.673585879 326.0
64.690297148 335.0
64.707008417 304.0
64.723719686 321.0
64.740430955 301.0
64.757142224 331.0
64.773853493 311.0
64.790564762 335.0
64.807276031 353.0
64.823987300 361.0
64.840698569 337.0
64.857409838 357.0
64.874121107 345.0
64.890832376 316.0
64.907543645 372.0
64.924254914 328.0
64.940966183 327.0
64.957677452 339.0
64.974388721 368.0
64.991099990 473.0
65.007811259 562.0
65.024522528 657.0
65.041233797 700.0
65.057945066 775.0
65.074656335 706.0
65.091367604 557.0
65.108078873 493.0
65.124790142 460.0
65.141501411 371.0
65.158212680 370.0
65.174923949 376.0
65.191635218 407.0
65.208346487 478.0
65.225057756 492.0
65.241769024 484.0
65.258480293 543.0
65.275191562 435.0
65.291902831 395.0
65.308614100 384.0
65.325325369 316.0
65.342036638 352.0
65.358747907 314.0
65.375459176 391.0
65.392170445 400.0
65.408881714 415.0
65.425592983 440.0
65.442304252 448.0
65.459015521 446.0
65.475726790 419.0
65.492438059 371.0
65.509149328 371.0
65.525860597 347.0
65.542571866 350.0
65.559283135 361.0
65.575994404 341.0
65.592705673 325.0
65.609416942 370.0
65.626128211 368.0
65.642839480 381.0
65.659550749 362.0
65.676262018 359.0
65.692973287 352.0
65.709684556 319.0
65.726395825 356.0
65.743107094 324.0
65.759818363 342.0
65.776529632 351.0
65.793240901 284.0
65.809952170 299.0
65.826663439 326.0
65.843374708 314.0
65.860085977 310.0
65.876797246 324.0
65.893508515 312.0
65.910219784 312.0
65.926931053 306.0
65.943642322 305.0
65.960353591 304.0
65.977064859 302.0
65.993776128 283.0
66.010487397 291.0
66.027198666 268.0
66.043909935 288.0
66.060621204 295.0
66.077332473 323.0
66.094043742 285.0
66.110755011 314.0
66.127466280 328.0
66.144177549 291.0
66.160888818 274.0
66.177600087 299.0
66.194311356 253.0
66.211022625 301.0
66.227733894 295.0
66.244445163 284.0
66.261156432 288.0
66.277867701 314.0
66.294578970 283.0
66.311290239 345.0
66.328001508 347.0
66.344712777 291.0
66.361424046 264.0
66.378135315 303.0
66.394846584 344.0
66.411557853 332.0
66.428269122 277.0
66.444980391 292.0
66.461691660 320.0
66.478402929 310.0
66.495114198 351.0
66.511825467 363.0
66.528536736 342.0
66.545248005 330.0
66.561959274 303.0
66.578670543 326.0
66.595381812 303.0
66.612093081 325.0
66.628804350 341.0
66.645515619 304.0
66.662226888 334.0
66.678938157 343.0
66.695649426 330.0
66.712360695 315.0
66.729071963 333.0
66.745783232 351.0
66.762494501 336.0
66.779205770 399.0
66.795917039 413.0
66.812628308 426.0
66.829339577 405.0
66.846050846 447.0
66.862762115 404.0
66.879473384 401.0
66.896184653 368.0
66.912895922 349.0
66.929607191 317.0
66.946318460 290.0
66.963029729 300.0
66.979740998 307.0
66.996452267 331.0
67.013163536 320.0
67.029874805 326.0
67.046586074 311.0
67.063297343 338.0
67.080008612 320.0
67.096719881 287.0
67.113431150 298.0
67.130142419 302.0
67.146853688 267.0
67.163564957 291.0
67.180276226 297.0
67.196987495 287.0
67.213698764 272.0
67.230410033 256.0
67.247121302 271.0
67.263832571 253.0
67.280543840 278.0
67.297255109 281.0
67.313966378 318.0
67.330677647 267.0
67.347388916 268.0
67.364100185 281.0
67.380811454 266.0
67.397522723 280.0
67.414233992 284.0
67.430945261 286.0
67.447656530 275.0
67.464367798 261.0
67.481079067 290.0
67.497790336 276.0
67.514501605 286.0
67.531212874 298.0
67.547924143 272.0
67.564635412 316.0
67.581346681 336.0
67.598057950 314.0
67.614769219 326.0
67.631480488 333.0
67.648191757 319.0
67.664903026 300.0
67.681614295 306.0
67.698325564 294.0
67.715036833 266.0
67.731748102 308.0
67.748459371 313.0
67.765170640 298.0
67.781881909 310.0
67.798593178 302.0
67.815304447 309.0
67.832015716 280.0
67.848726985 276.0
67.865438254 292.0
67.882149523 299.0
67.898860792 269.0
67.915572061 280.0
67.932283330 280.0
67.948994599 289.0
67.965705868 273.0
67.982417137 290.0
67.999128406 265.0
68.015839675 254.0
68.032550944 319.0
68.049262213 293.0
68.065973482 305.0
68.082684751 246.0
68.099396020 243.0
68.116107289 273.0
68.132818558 244.0
68.149529827 269.0
68.166241096 292.0
68.182952365 296.0
68.199663633 282.0
68.216374902 303.0
68.233086171 309.0
68.249797440 318.0
68.266508709 347.0
68.283219978 386.0
68.299931247 368.0
68.316642516 344.0
68.333353785 341.0
68.350065054 310.0
68.366776323 347.0
68.383487592 333.0
68.400198861 348.0
68.416910130 322.0
68.433621399 302.0
68.450332668 357.0
68.467043937 331.0
68.483755206 273.0
68.500466475 308.0
68.517177744 298.0
68.533889013 312.0
68.550600282 300.0
68.567311551 310.0
68.584022820 283.0
68.600734089 301.0
68.617445358 289.0
68.634156627 283.0
68.650867896 258.0
68.667579165 247.0
68.684290434 268.0
68.701001703 275.0
68.717712972 270.0
68.734424241 255.0
68.751135510 260.0
68.767846779 259.0
68.784558048 261.0
68.801269317 263.0
68.817980586 256.0
68.834691855 288.0
68.851403124 280.0
68.868114393 266.0
68.884825662 257.0
68.901536931 263.0
68.918248200 272.0
68.934959468 268.0
68.951670737 266.0
68.968382006 240.0
68.985093275 244.0
69.001804544 267.0
69.018515813 239.0
69.035227082 211.0
69.051938351 250.0
69.068649620 243.0
69.085360889 245.0
69.102072158 225.0
69.118783427 252.0
69.135494696 239.0
69.152205965 263.0
69.168917234 218.0
69.185628503 236.0
69.202339772 272.0
69.219051041 236.0
69.235762310 239.0
69.252473579 248.0
69.269184848 257.0
69.285896117 278.0
69.302607386 248.0
69.319318655 298.0
69.336029924 280.0
69.352741193 308.0
69.369452462 280.0
69.386163731 255.0
69.402875000 262.0
69.419586269 293.0
69.436297538 296.0
69.453008807 261.0
69.469720076 298.0
69.486431345 299.0
69.503142614 268.0
69.519853883 306.0
69.536565152 279.0
69.553276421 296.0
69.569987690 339.0
69.586698959 304.0
69.603410228 355.0
69.620121497 324.0
69.636832766 343.0
69.653544035 361.0
69.670255304 325.0
69.686966572 318.0
69.703677841 326.0
69.720389110 284.0
69.737100379 306.0
69.753811648 320.0
69.770522917 303.0
69.787234186 299.0
69.803945455 314.0
69.820656724 293.0
69.837367993 281.0
69.854079262 294.0
69.870790531 331.0
69.887501800 322.0
69.904213069 270.0
69.920924338 284.0
69.937635607 325.0
69.954346876 300.0
69.971058145 302.0
69.987769414 308.0
70.004480683 329.0
70.021191952 334.0
70.037903221 314.0
70.054614490 361.0
70.071325759 300.0
70.088037028 298.0
70.104748297 316.0
70.121459566 293.0
70.138170835 321.0
70.154882104 297.0
70.171593373 302.0
70.188304642 281.0
70.205015911 278.0
70.221727180 308.0
70.238438449 300.0
70.255149718 289.0
70.271860987 280.0
70.288572256 298.0
70.305283525 284.0
70.321994794 289.0
70.338706063 273.0
70.355417332 311.0
70.372128601 294.0
70.388839870 327.0
70.405551139 308.0
70.422262407 308.0
70.438973676 319.0
70.455684945 335.0
70.472396214 337.0
70.489107483 320.0
70.505818752 356.0
70.522530021 367.0
70.539241290 394.0
70.555952559 401.0
70.572663828 401.0
70.589375097 410.0
70.606086366 412.0
70.622797635 408.0
70.639508904 402.0
70.656220173 384.0
70.672931442 374.0
70.689642711 373.0
70.706353980 357.0
70.723065249 357.0
70.739776518 379.0
70.756487787 366.0
70.773199056 353.0
70.789910325 342.0
70.806621594 368.0
70.823332863 331.0
70.840044132 309.0
70.856755401 340.0
70.873466670 305.0
70.890177939 334.0
70.906889208 291.0
70.923600477 263.0
70.940311746 278.0
70.957023015 276.0
70.973734284 255.0
70.990445553 276.0
71.007156822 264.0
71.023868091 268.0
71.040579360 272.0
71.057290629 260.0
71.074001898 255.0
71.090713167 232.0
71.107424436 297.0
71.124135705 275.0
71.140846974 261.0
71.157558242 242.0
71.174269511 260.0
71.190980780 269.0
71.207692049 284.0
71.224403318 251.0
71.241114587 271.0
71.257825856 273.0
71.274537125 272.0
71.291248394 266.0
71.307959663 268.0
71.324670932 275.0
71.341382201 282.0
71.358093470 278.0
71.374804739 287.0
71.391516008 259.0
71.408227277 293.0
71.424938546 281.0
71.441649815 261.0
71.458361084 280.0
71.475072353 264.0
71.491783622 249.0
71.508494891 283.0
71.525206160 301.0
71.541917429 264.0
71.558628698 297.0
71.575339967 283.0
71.592051236 316.0
71.608762505 307.0
71.625473774 325.0
71.642185043 343.0
71.658896312 347.0
71.675607581 382.0
71.692318850 360.0
71.709030119 381.0
71.725741388 393.0
71.742452657 378.0
71.759163926 359.0
71.775875195 334.0
71.792586464 299.0
71.809297733 310.0
71.826009002 328.0
71.842720271 320.0
71.859431540 343.0
71.876142809 306.0
71.892854077 304.0
71.909565346 304.0
71.926276615 318.0
71.942987884 304.0
71.959699153 327.0
71.976410422 336.0
71.993121691 309.0
72.009832960 304.0
72.026544229 313.0
72.043255498 291.0
72.059966767 291.0
72.076678036 298.0
72.093389305 333.0
72.110100574 302.0
72.126811843 256.0
72.143523112 296.0
72.160234381 316.0
72.176945650 321.0
72.193656919 347.0
72.210368188 354.0
72.227079457 376.0
72.243790726 364.0
72.260501995 401.0
72.277213264 426.0
72.293924533 419.0
72.310635802 395.0
72.327347071 352.0
72.344058340 387.0
72.360769609 385.0
72.377480878 358.0
72.394192147 378.0
72.410903416 339.0
72.427614685 366.0
72.444325954 391.0
72.461037223 411.0
72.477748492 362.0
72.494459761 355.0
72.511171030 336.0
72.527882299 361.0
72.544593568 348.0
72.561304837 308.0
72.578016106 336.0
72.594727375 322.0
72.611438644 326.0
72.628149912 291.0
72.644861181 307.0
72.661572450 286.0
72.678283719 284.0
72.694994988 276.0
72.711706257 287.0
72.728417526 279.0
72.745128795 269.0
72.761840064 290.0
72.778551333 311.0
72.795262602 305.0
72.811973871 275.0
72.828685140 304.0
72.845396409 260.0
72.862107678 252.0
72.878818947 282.0
72.895530216 268.0
72.912241485 262.0
72.928952754 258.0
72.945664023 248.0
72.962375292 284.0
72.979086561 265.0
72.995797830 289.0
73.012509099 243.0
73.029220368 239.0
73.045931637 279.0
73.062642906 281.0
73.079354175 298.0
73.096065444 285.0
73.112776713 291.0
73.129487982 309.0
73.146199251 368.0
73.162910520 346.0
73.179621789 363.0
73.196333058 365.0
73.213044327 358.0
73.229755596 370.0
73.246466865 347.0
73.263178134 403.0
73.279889403 401.0
73.296600672 378.0
73.313311941 344.0
73.330023210 320.0
73.346734479 310.0
73.363445748 343.0
73.380157016 344.0
73.396868285 328.0
73.413579554 359.0
73.430290823 350.0
73.447002092 363.0
73.463713361 349.0
73.480424630 316.0
73.497135899 289.0
73.513847168 319.0
73.530558437 300.0
73.547269706 306.0
73.563980975 302.0
73.580692244 287.0
73.597403513 295.0
73.614114782 319.0
73.630826051 283.0
73.647537320 317.0
73.664248589 299.0
73.680959858 291.0
73.697671127 306.0
73.714382396 282.0
73.731093665 336.0
73.747804934 327.0
73.764516203 331.0
73.781227472 355.0
73.797938741 385.0
73.814650010 379.0
73.831361279 405.0
73.848072548 364.0
73.864783817 352.0
73.881495086 349.0
73.898206355 361.0
73.914917624 326.0
73.931628893 337.0
73.948340162 327.0
73.965051431 339.0
73.981762700 367.0
73.998473969 298.0
74.015185238 328.0
74.031896507 341.0
74.048607776 378.0
74.065319045 377.0
74.082030314 357.0
74.098741583 343.0
74.115452851 393.0
74.132164120 352.0
74.148875389 293.0
74.165586658 375.0
74.182297927 362.0
74.199009196 349.0
74.215720465 374.0
74.232431734 361.0
74.249143003 378.0
74.265854272 409.0
74.282565541 473.0
74.299276810 472.0
74.315988079 420.0
74.332699348 436.0
74.349410617 490.0
74.366121886 474.0
74.382833155 417.0
74.399544424 437.0
74.416255693 442.0
74.432966962 470.0
74.449678231 515.0
74.466389500 499.0
74.483100769 524.0
74.499812038 544.0
74.516523307 482.0
74.533234576 542.0
74.549945845 525.0
74.566657114 526.0
74.583368383 493.0
74.600079652 506.0
74.616790921 511.0
74.633502190 499.0
74.650213459 480.0
74.666924728 470.0
74.683635997 459.0
74.700347266 518.0
74.717058535 431.0
74.733769804 447.0
74.750481073 439.0
74.767192342 444.0
74.783903611 444.0
74.800614880 422.0
74.817326149 449.0
74.834037418 378.0
74.850748686 425.0
74.867459955 397.0
74.884171224 426.0
74.900882493 392.0
74.917593762 430.0
74.934305031 380.0
74.951016300 386.0
74.967727569 393.0
74.984438838 356.0
75.001150107 348.0
75.017861376 344.0
75.034572645 337.0
75.051283914 347.0
75.067995183 358.0
75.084706452 361.0
75.101417721 358.0
75.118128990 352.0
75.134840259 375.0
75.151551528 343.0
75.168262797 382.0
75.184974066 322.0
75.201685335 290.0
75.218396604 296.0
75.235107873 328.0
75.251819142 335.0
75.268530411 275.0
75.285241680 299.0
75.301952949 332.0
75.318664218 270.0
75.335375487 295.0
75.352086756 295.0
75.368798025 296.0
75.385509294 283.0
75.402220563 277.0
75.418931832 288.0
75.435643101 261.0
75.452354370 286.0
75.469065639 276.0
75.485776908 286.0
75.502488177 299.0
75.519199446 283.0
75.535910715 247.0
75.552621984 263.0
75.569333253 301.0
75.586044521 270.0
75.602755790 233.0
75.619467059 272.0
75.636178328 260.0
75.652889597 267.0
75.669600866 251.0
75.686312135 236.0
75.703023404 264.0
75.719734673 270.0
75.736445942 246.0
75.753157211 263.0
75.769868480 250.0
75.786579749 256.0
75.803291018 269.0
75.820002287 268.0
75.836713556 227.0
75.853424825 291.0
75.870136094 276.0
75.886847363 259.0
75.903558632 266.0
75.920269901 240.0
75.936981170 220.0
75.953692439 250.0
75.970403708 251.0
75.987114977 256.0
76.003826246 279.0
76.020537515 252.0
76.037248784 272.0
76.053960053 279.0
76.070671322 248.0
76.087382591 256.0
76.104093860 276.0
76.120805129 277.0
76.137516398 278.0
76.154227667 262.0
76.170938936 283.0
76.187650205 303.0
76.204361474 300.0
76.221072743 327.0
76.237784012 286.0
76.254495281 288.0
76.271206550 280.0
76.287917819 271.0
76.304629088 297.0
76.321340356 267.0
76.338051625 298.0
76.354762894 259.0
76.371474163 262.0
76.388185432 301.0
76.404896701 319.0
76.421607970 288.0
76.438319239 318.0
76.455030508 290.0
76.471741777 288.0
76.488453046 291.0
76.505164315 304.0
76.521875584 306.0
76.538586853 332.0
76.555298122 315.0
76.572009391 348.0
76.588720660 351.0
76.605431929 362.0
76.622143198 364.0
76.638854467 429.0
76.655565736 409.0
76.672277005 389.0
76.688988274 371.0
76.705699543 386.0
76.722410812 362.0
76.739122081 368.0
76.755833350 356.0
76.772544619 347.0
76.789255888 393.0
76.805967157 381.0
76.822678426 381.0
76.839389695 377.0
76.856100964 385.0
76.872812233 362.0
76.889523502 363.0
76.906234771 379.0
76.922946040 365.0
76.939657309 358.0
76.956368578 348.0
76.973079847 372.0
76.989791116 322.0
77.006502385 337.0
77.023213654 328.0
77.039924923 352.0
77.056636192 321.0
77.073347460 333.0
77.090058729 329.0
77.106769998 330.0
77.123481267 297.0
77.140192536 318.0
77.156903805 282.0
77.173615074 312.0
77.190326343 301.0
77.207037612 239.0
77.223748881 273.0
77.240460150 273.0
77.257171419 285.0
77.273882688 278.0
77.290593957 307.0
77.307305226 300.0
77.324016495 296.0
77.340727764 311.0
77.357439033 281.0
77.374150302 278.0
77.390861571 291.0
77.407572840 304.0
77.424284109 279.0
77.440995378 301.0
77.457706647 266.0
77.474417916 323.0
77.491129185 270.0
77.507840454 269.0
77.524551723 270.0
77.541262992 304.0
77.557974261 267.0
77.574685530 289.0
77.591396799 266.0
77.608108068 269.0
77.624819337 266.0
77.641530606 292.0
77.658241875 279.0
77.674953144 270.0
77.691664413 306.0
77.708375682 302.0
77.725086951 307.0
77.741798220 292.0
77.758509489 322.0
77.775220758 332.0
77.791932027 281.0
77.808643295 294.0
77.825354564 285.0
77.842065833 309.0
77.858777102 314.0
77.875488371 297.0
77.892199640 334.0
77.908910909 357.0
77.925622178 347.0
77.942333447 368.0
77.959044716 344.0
77.975755985 381.0
77.992467254 338.0
78.009178523 330.0
78.025889792 326.0
78.042601061 333.0
78.059312330 381.0
78.076023599 375.0
78.092734868 430.0
78.109446137 430.0
78.126157406 553.0
78.142868675 649.0
78.159579944 803.0
78.176291213 989.0
78.193002482 1023.0
78.209713751 980.0
78.226425020 855.0
78.243136289 682.0
78.259847558 572.0
78.276558827 479.0
78.293270096 431.0
78.309981365 428.0
78.326692634 412.0
78.343403903 423.0
78.360115172 459.0
78.376826441 521.0
78.393537710 553.0
78.410248979 638.0
78.426960248 601.0
78.443671517 638.0
78.460382786 579.0
78.477094055 470.0
78.493805324 408.0
78.510516593 384.0
78.527227862 383.0
78.543939130 335.0
78.560650399 328.0
78.577361668 325.0
78.594072937 347.0
78.610784206 330.0
78.627495475 317.0
78.644206744 322.0
78.660918013 342.0
78.677629282 332.0
78.694340551 356.0
78.711051820 322.0
78.727763089 354.0
78.744474358 341.0
78.761185627 331.0
78.777896896 311.0
78.794608165 352.0
78.811319434 327.0
78.828030703 331.0
78.844741972 354.0
78.861453241 366.0
78.878164510 406.0
78.894875779 395.0
78.911587048 437.0
78.928298317 478.0
78.945009586 477.0
78.961720855 439.0
78.978432124 396.0
78.995143393 376.0
79.011854662 394.0
79.028565931 381.0
79.045277200 381.0
79.061988469 305.0
79.078699738 346.0
79.095411007 370.0
79.112122276 352.0
79.128833545 397.0
79.145544814 437.0
79.162256083 425.0
79.178967352 425.0
79.195678621 414.0
79.212389890 404.0
79.229101159 391.0
79.245812428 406.0
79.262523697 374.0
79.279234965 360.0
79.295946234 359.0
79.312657503 385.0
79.329368772 345.0
79.346080041 327.0
79.362791310 302.0
79.379502579 345.0
79.396213848 338.0
79.412925117 337.0
79.429636386 350.0
79.446347655 318.0
79.463058924 323.0
79.479770193 315.0
79.496481462 303.0
79.513192731 316.0
79.529904000 332.0
79.546615269 313.0
79.563326538 308.0
79.580037807 306.0
79.596749076 333.0
79.613460345 334.0
79.630171614 345.0
79.646882883 345.0
79.663594152 368.0
79.680305421 402.0
79.697016690 403.0
79.713727959 372.0
79.730439228 409.0
79.747150497 367.0
79.763861766 426.0
79.780573035 394.0
79.797284304 382.0
79.813995573 394.0
79.830706842 412.0
79.847418111 417.0
79.864129380 428.0
79.880840649 421.0
79.897551918 391.0
79.914263187 398.0
79.930974456 429.0
79.947685725 397.0
79.964396994 380.0
79.981108263 385.0
79.997819532 373.0
80.014530801 355.0
80.031242069 329.0
80.047953338 334.0
80.064664607 312.0
80.081375876 333.0
80.098087145 363.0
80.114798414 332.0
80.131509683 396.0
80.148220952 361.0
80.164932221 346.0
80.181643490 322.0
80.198354759 321.0
80.215066028 285.0
80.231777297 237.0
80.248488566 297.0
80.265199835 279.0
80.281911104 335.0
80.298622373 325.0
80.315333642 284.0
80.332044911 333.0
80.348756180 313.0
80.365467449 341.0
80.382178718 315.0
80.398889987 320.0
80.415601256 296.0
80.432312525 297.0
80.449023794 322.0
80.465735063 315.0
80.482446332 323.0
80.499157601 339.0
80.515868870 374.0
80.532580139 344.0
80.549291408 355.0
80.566002677 348.0
80.582713946 379.0
80.599425215 418.0
80.616136484 422.0
80.632847753 453.0
80.649559022 428.0
80.666270291 410.0
80.682981560 433.0
80.699692829 409.0
80.716404098 403.0
80.733115367 370.0
80.749826636 372.0
80.766537904 385.0
80.783249173 355.0
80.799960442 334.0
80.816671711 385.0
80.833382980 380.0
80.850094249 319.0
80.866805518 351.0
80.883516787 371.0
80.900228056 323.0
80.916939325 322.0
80.933650594 323.0
80.950361863 353.0
80.967073132 319.0
80.983784401 311.0
81.000495670 298.0
81.017206939 307.0
81.033918208 351.0
81.050629477 295.0
81.067340746 272.0
81.084052015 284.0
81.100763284 284.0
81.117474553 272.0
81.134185822 291.0
81.150897091 312.0
81.167608360 329.0
81.184319629 294.0
81.201030898 339.0
81.217742167 300.0
81.234453436 332.0
81.251164705 350.0
81.267875974 318.0
81.284587243 336.0
81.301298512 301.0
81.318009781 365.0
81.334721050 364.0
81.351432319 380.0
81.368143588 407.0
81.384854857 407.0
81.401566126 391.0
81.418277395 408.0
81.434988664 453.0
81.451699933 462.0
81.468411202 431.0
81.485122471 432.0
81.501833739 441.0
81.518545008 448.0
81.535256277 405.0
81.551967546 437.0
81.568678815 346.0
81.585390084 394.0
81.602101353 395.0
81.618812622 410.0
81.635523891 414.0
81.652235160 379.0
81.668946429 411.0
81.685657698 422.0
81.702368967 362.0
81.719080236 397.0
81.735791505 411.0
81.752502774 417.0
81.769214043 391.0
81.785925312 392.0
81.802636581 434.0
81.819347850 402.0
81.836059119 357.0
81.852770388 399.0
81.869481657 391.0
81.886192926 367.0
81.902904195 317.0
81.919615464 393.0
81.936326733 360.0
81.953038002 345.0
81.969749271 323.0
81.986460540 380.0
82.003171809 337.0
82.019883078 360.0
82.036594347 369.0
82.053305616 365.0
82.070016885 393.0
82.086728154 376.0
82.103439423 350.0
82.120150692 335.0
82.136861961 343.0
82.153573230 345.0
82.170284499 310.0
82.186995768 321.0
82.203707037 332.0
82.220418306 353.0
82.237129574 342.0
82.253840843 373.0
82.270552112 356.0
82.287263381 357.0
82.303974650 357.0
82.320685919 380.0
82.337397188 368.0
82.354108457 313.0
82.370819726 373.0
82.387530995 378.0
82.404242264 396.0
82.420953533 392.0
82.437664802 388.0
82.454376071 418.0
82.471087340 386.0
82.487798609 389.0
82.504509878 361.0
82.521221147 358.0
82.537932416 414.0
82.554643685 407.0
82.571354954 403.0
82.588066223 396.0
82.604777492 396.0
82.621488761 426.0
82.638200030 387.0
82.654911299 406.0
82.671622568 402.0
82.688333837 377.0
82.705045106 445.0
82.721756375 380.0
82.738467644 465.0
82.755178913 463.0
82.771890182 458.0
82.788601451 449.0
82.805312720 444.0
82.822023989 444.0
82.838735258 463.0
82.855446527 457.0
82.872157796 418.0
82.888869065 461.0
82.905580334 455.0
82.922291603 409.0
82.939002872 449.0
82.955714141 419.0
82.972425409 374.0
82.989136678 416.0
83.005847947 406.0
83.022559216 379.0
83.039270485 423.0
83.055981754 400.0
83.072693023 383.0
83.089404292 389.0
83.106115561 385.0
83.122826830 338.0
83.139538099 338.0
83.156249368 364.0
83.172960637 374.0
83.189671906 336.0
83.206383175 342.0
83.223094444 323.0
83.239805713 304.0
83.256516982 327.0
83.273228251 276.0
83.289939520 300.0
83.306650789 299.0
83.323362058 343.0
83.340073327 329.0
83.356784596 333.0
83.373495865 340.0
83.390207134 328.0
83.406918403 346.0
83.423629672 321.0
83.440340941 330.0
83.457052210 371.0
83.473763479 354.0
83.490474748 311.0
83.507186017 305.0
83.523897286 257.0
83.540608555 263.0
83.557319824 283.0
83.574031093 309.0
83.590742362 273.0
83.607453631 322.0
83.624164900 287.0
83.640876169 309.0
83.657587438 348.0
83.674298707 304.0
83.691009976 321.0
83.707721245 320.0
83.724432513 304.0
83.741143782 302.0
83.757855051 334.0
83.774566320 306.0
83.791277589 303.0
83.807988858 321.0
83.824700127 299.0
83.841411396 317.0
83.858122665 320.0
83.874833934 276.0
83.891545203 299.0
83.908256472 343.0
83.924967741 311.0
83.941679010 306.0
83.958390279 276.0
83.975101548 285.0
83.991812817 284.0
84.008524086 302.0
84.025235355 336.0
84.041946624 283.0
84.058657893 252.0
84.075369162 266.0
84.092080431 267.0
84.108791700 242.0
84.125502969 285.0
84.142214238 266.0
84.158925507 282.0
84.175636776 259.0
84.192348045 247.0
84.209059314 248.0
84.225770583 248.0
84.242481852 248.0
84.259193121 268.0
84.275904390 254.0
84.292615659 260.0
84.309326928 278.0
84.326038197 252.0
84.342749466 228.0
84.359460735 227.0
84.376172004 233.0
84.392883273 234.0
84.409594542 298.0
84.426305811 257.0
84.443017080 265.0
84.459728348 290.0
84.476439617 286.0
84.493150886 267.0
84.509862155 274.0
84.526573424 280.0
84.543284693 271.0
84.559995962 268.0
84.576707231 277.0
84.593418500 289.0
84.610129769 331.0
84.626841038 363.0
84.643552307 319.0
84.660263576 309.0
84.676974845 302.0
84.693686114 304.0
84.710397383 290.0
84.727108652 285.0
84.743819921 288.0
84.760531190 311.0
84.777242459 265.0
84.793953728 277.0
84.810664997 250.0
84.827376266 262.0
84.844087535 272.0
84.860798804 289.0
84.877510073 281.0
84.894221342 274.0
84.910932611 291.0
84.927643880 266.0
84.944355149 288.0
84.961066418 282.0
84.977777687 281.0
84.994488956 273.0
85.011200225 241.0
85.027911494 278.0
85.044622763 274.0
85.061334032 255.0
85.078045301 231.0
85.094756570 221.0
85.111467839 261.0
85.128179108 267.0
85.144890377 255.0
85.161601646 258.0
85.178312915 230.0
85.195024183 248.0
85.211735452 223.0
85.228446721 221.0
85.245157990 243.0
85.261869259 224.0
85.278580528 231.0
85.295291797 247.0
85.312003066 289.0
85.328714335 238.0
85.345425604 235.0
85.362136873 232.0
85.378848142 212.0
85.395559411 223.0
85.412270680 214.0
85.428981949 240.0
85.445693218 244.0
85.462404487 225.0
85.479115756 240.0
85.495827025 229.0
85.512538294 246.0
85.529249563 245.0
85.545960832 259.0
85.562672101 209.0
85.579383370 241.0
85.596094639 212.0
85.612805908 214.0
85.629517177 211.0
85.646228446 217.0
85.662939715 202.0
85.679650984 234.0
85.696362253 246.0
85.713073522 214.0
85.729784791 246.0
85.746496060 219.0
85.763207329 209.0
85.779918598 224.0
85.796629867 228.0
85.813341136 220.0
85.830052405 229.0
85.846763674 230.0
85.863474943 221.0
85.880186212 219.0
85.896897481 234.0
85.913608750 256.0
85.930320018 243.0
85.947031287 242.0
85.963742556 256.0
85.980453825 224.0
85.997165094 232.0
86.013876363 215.0
86.030587632 203.0
86.047298901 235.0
86.064010170 266.0
86.080721439 211.0
86.097432708 222.0
86.114143977 231.0
86.130855246 225.0
86.147566515 224.0
86.164277784 237.0
86.180989053 235.0
86.197700322 226.0
86.214411591 215.0
86.231122860 227.0
86.247834129 215.0
86.264545398 237.0
86.281256667 235.0
86.297967936 235.0
86.314679205 232.0
86.331390474 244.0
86.348101743 281.0
86.364813012 275.0
86.381524281 248.0
86.398235550 242.0
86.414946819 280.0
86.431658088 259.0
86.448369357 250.0
86.465080626 233.0
86.481791895 218.0
86.498503164 223.0
86.515214433 245.0
86.531925702 222.0
86.548636971 250.0
86.565348240 255.0
86.582059509 233.0
86.598770778 239.0
86.615482047 247.0
86.632193316 270.0
86.648904585 266.0
86.665615854 233.0
86.682327122 244.0
86.699038391 256.0
86.715749660 223.0
86.732460929 249.0
86.749172198 234.0
86.765883467 244.0
86.782594736 252.0
86.799306005 237.0
86.816017274 245.0
86.832728543 232.0
86.849439812 250.0
86.866151081 255.0
86.882862350 225.0
86.899573619 230.0
86.916284888 274.0
86.932996157 240.0
86.949707426 233.0
86.966418695 254.0
86.983129964 245.0
86.999841233 240.0
87.016552502 217.0
87.033263771 249.0
87.049975040 232.0
87.066686309 264.0
87.083397578 280.0
87.100108847 278.0
87.116820116 292.0
87.133531385 316.0
87.150242654 331.0
87.166953923 291.0
87.183665192 328.0
87.200376461 328.0
87.217087730 331.0
87.233798999 323.0
87.250510268 299.0
87.267221537 282.0
87.283932806 300.0
87.300644075 311.0
87.317355344 281.0
87.334066613 289.0
87.350777882 289.0
87.367489151 295.0
87.384200420 283.0
87.400911689 306.0
87.417622957 281.0
87.434334226 307.0
87.451045495 284.0
87.467756764 320.0
87.484468033 326.0
87.501179302 333.0
87.517890571 333.0
87.534601840 307.0
87.551313109 331.0
87.568024378 312.0
87.584735647 338.0
87.601446916 306.0
87.618158185 305.0
87.634869454 271.0
87.651580723 300.0
87.668291992 275.0
87.685003261 304.0
87.701714530 330.0
87.718425799 289.0
87.735137068 291.0
87.751848337 325.0
87.768559606 330.0
87.785270875 295.0
87.801982144 272.0
87.818693413 274.0
87.835404682 289.0
87.852115951 281.0
87.868827220 277.0
87.885538489 287.0
87.902249758 267.0
87.918961027 288.0
87.935672296 262.0
87.952383565 299.0
87.969094834 271.0
87.985806103 299.0
88.002517372 292.0
88.019228641 301.0
88.035939910 289.0
88.052651179 303.0
88.069362448 272.0
88.086073717 297.0
88.102784986 277.0
88.119496255 259.0
88.136207524 290.0
88.152918792 262.0
88.169630061 313.0
88.186341330 311.0
88.203052599 307.0
88.219763868 301.0
88.236475137 319.0
88.253186406 320.0
88.269897675 317.0
88.286608944 281.0
88.303320213 306.0
88.320031482 320.0
88.336742751 316.0
88.353454020 255.0
88.370165289 286.0
88.386876558 279.0
88.403587827 307.0
88.420299096 274.0
88.437010365 325.0
88.453721634 311.0
88.470432903 304.0
88.487144172 328.0
88.503855441 274.0
88.520566710 272.0
88.537277979 305.0
88.553989248 308.0
88.570700517 284.0
88.587411786 311.0
88.604123055 283.0
88.620834324 280.0
88.637545593 285.0
88.654256862 255.0
88.670968131 264.0
88.687679400 276.0
88.704390669 256.0
88.721101938 247.0
88.737813207 252.0
88.754524476 275.0
88.771235745 273.0
88.787947014 248.0
88.804658283 270.0
88.821369552 249.0
88.838080821 239.0
88.854792090 256.0
88.871503359 228.0
88.888214627 238.0
88.904925896 250.0
88.921637165 262.0
88.938348434 280.0
88.955059703 247.0
88.971770972 256.0
88.988482241 247.0
89.005193510 254.0
89.021904779 261.0
89.038616048 229.0
89.055327317 251.0
89.072038586 247.0
89.088749855 256.0
89.105461124 249.0
89.122172393 214.0
89.138883662 271.0
89.155594931 268.0
89.172306200 230.0
89.189017469 242.0
89.205728738 252.0
89.222440007 233.0
89.239151276 227.0
89.255862545 239.0
89.272573814 243.0
89.289285083 229.0
89.305996352 215.0
89.322707621 238.0
89.339418890 242.0
89.356130159 246.0
89.372841428 240.0
89.389552697 226.0
89.406263966 213.0
89.422975235 240.0
89.439686504 249.0
89.456397773 217.0
89.473109042 231.0
89.489820311 237.0
89.506531580 219.0
89.523242849 225.0
89.539954118 215.0
89.556665387 199.0
89.573376656 242.0
89.590087925 220.0
89.606799194 236.0
89.623510462 196.0
89.640221731 233.0
89.656933000 262.0
89.673644269 233.0
89.690355538 257.0
89.707066807 204.0
89.723778076 257.0
89.740489345 259.0
89.757200614 232.0
89.773911883 245.0
89.790623152 244.0
89.807334421 233.0
89.824045690 239.0
89.840756959 243.0
89.857468228 265.0
89.874179497 213.0
89.890890766 245.0
89.907602035 264.0
89.924313304 214.0
89.941024573 262.0
89.957735842 241.0
89.974447111 271.0
89.991158380 242.0
